# Temperatura_=_72.66
# Concentracion g/m^3_=_15000.0
# C_Vs_to_Am_M_A/Vsm_=_65563218390.804596
# pendiente_HvsI_1/m_=_3716.3
# ordenada_HvsI_A/m_=_1297.0
# frecuencia_Hz_=_301595.4950547149

Tiempo_(s)	Campo_(V.s)	Magnetizacion_(V.s)	Campo_(kA/m)	Magnetizacion_(A/m)
0.000000e+00	-5.405705e-06	-9.340689e-09	-3.833826e+01	-6.096831e+02
1.000000e-08	-5.403175e-06	-9.334059e-09	-3.832031e+01	-6.093952e+02
2.000000e-08	-5.398853e-06	-9.325112e-09	-3.828966e+01	-6.089756e+02
3.000000e-08	-5.392935e-06	-9.318516e-09	-3.824769e+01	-6.084214e+02
4.000000e-08	-5.385427e-06	-9.308596e-09	-3.819444e+01	-6.077311e+02
5.000000e-08	-5.376110e-06	-9.293513e-09	-3.812836e+01	-6.069059e+02
6.000000e-08	-5.364733e-06	-9.274520e-09	-3.804767e+01	-6.059499e+02
7.000000e-08	-5.351450e-06	-9.249807e-09	-3.795347e+01	-6.048705e+02
8.000000e-08	-5.336100e-06	-9.251575e-09	-3.784460e+01	-6.036784e+02
9.000000e-08	-5.318537e-06	-9.283710e-09	-3.772004e+01	-6.023862e+02
1.000000e-07	-5.298908e-06	-9.249143e-09	-3.758083e+01	-6.010077e+02
1.100000e-07	-5.277296e-06	-9.194364e-09	-3.742756e+01	-5.995564e+02
1.200000e-07	-5.253884e-06	-9.142489e-09	-3.726151e+01	-5.980434e+02
1.300000e-07	-5.228919e-06	-9.030794e-09	-3.708446e+01	-5.964766e+02
1.400000e-07	-5.202392e-06	-9.098224e-09	-3.689632e+01	-5.948587e+02
1.500000e-07	-5.174230e-06	-9.142489e-09	-3.669659e+01	-5.931872e+02
1.600000e-07	-5.144579e-06	-8.981962e-09	-3.648630e+01	-5.914537e+02
1.700000e-07	-5.113403e-06	-9.042122e-09	-3.626520e+01	-5.896448e+02
1.800000e-07	-5.080106e-06	-9.006829e-09	-3.602905e+01	-5.877429e+02
1.900000e-07	-5.044862e-06	-8.848178e-09	-3.577909e+01	-5.857284e+02
2.000000e-07	-5.008202e-06	-8.946841e-09	-3.551909e+01	-5.835810e+02
2.100000e-07	-4.969776e-06	-8.890686e-09	-3.524657e+01	-5.812819e+02
2.200000e-07	-4.929541e-06	-8.758038e-09	-3.496121e+01	-5.788159e+02
2.300000e-07	-4.887441e-06	-8.789956e-09	-3.466263e+01	-5.761723e+02
2.400000e-07	-4.843382e-06	-8.741335e-09	-3.435016e+01	-5.733464e+02
2.500000e-07	-4.797507e-06	-8.696661e-09	-3.402480e+01	-5.703392e+02
2.600000e-07	-4.749700e-06	-8.654939e-09	-3.368575e+01	-5.671570e+02
2.700000e-07	-4.699759e-06	-8.567965e-09	-3.333155e+01	-5.638106e+02
2.800000e-07	-4.647762e-06	-8.523704e-09	-3.296279e+01	-5.603135e+02
2.900000e-07	-4.593984e-06	-8.460182e-09	-3.258138e+01	-5.566803e+02
3.000000e-07	-4.538608e-06	-8.413778e-09	-3.218865e+01	-5.529246e+02
3.100000e-07	-4.481499e-06	-8.380690e-09	-3.178361e+01	-5.490578e+02
3.200000e-07	-4.422539e-06	-8.321719e-09	-3.136546e+01	-5.450877e+02
3.300000e-07	-4.361980e-06	-8.231721e-09	-3.093596e+01	-5.410178e+02
3.400000e-07	-4.299946e-06	-8.149252e-09	-3.049601e+01	-5.368472e+02
3.500000e-07	-4.236564e-06	-8.123172e-09	-3.004649e+01	-5.325713e+02
3.600000e-07	-4.171696e-06	-8.050373e-09	-2.958644e+01	-5.281822e+02
3.700000e-07	-4.105106e-06	-7.958351e-09	-2.911417e+01	-5.236705e+02
3.800000e-07	-4.036953e-06	-7.903487e-09	-2.863081e+01	-5.190262e+02
3.900000e-07	-3.967458e-06	-7.828175e-09	-2.813794e+01	-5.142403e+02
4.000000e-07	-3.896752e-06	-7.748062e-09	-2.763648e+01	-5.093054e+02
4.100000e-07	-3.824757e-06	-7.667680e-09	-2.712588e+01	-5.042168e+02
4.200000e-07	-3.751223e-06	-7.597823e-09	-2.660436e+01	-4.989724e+02
4.300000e-07	-3.676083e-06	-7.507498e-09	-2.607146e+01	-4.935727e+02
4.400000e-07	-3.599484e-06	-7.410214e-09	-2.552821e+01	-4.880200e+02
4.500000e-07	-3.521421e-06	-7.335612e-09	-2.497457e+01	-4.823177e+02
4.600000e-07	-3.441925e-06	-7.262586e-09	-2.441077e+01	-4.764696e+02
4.700000e-07	-3.361172e-06	-7.174386e-09	-2.383805e+01	-4.704786e+02
4.800000e-07	-3.279255e-06	-7.065397e-09	-2.325708e+01	-4.643463e+02
4.900000e-07	-3.196243e-06	-6.969286e-09	-2.266834e+01	-4.580727e+02
5.000000e-07	-3.112219e-06	-6.876106e-09	-2.207243e+01	-4.516557e+02
5.100000e-07	-3.027177e-06	-6.770148e-09	-2.146929e+01	-4.450917e+02
5.200000e-07	-2.941193e-06	-6.663815e-09	-2.085948e+01	-4.383761e+02
5.300000e-07	-2.854295e-06	-6.557240e-09	-2.024318e+01	-4.315034e+02
5.400000e-07	-2.766428e-06	-6.447074e-09	-1.962002e+01	-4.244688e+02
5.500000e-07	-2.677544e-06	-6.335585e-09	-1.898964e+01	-4.172680e+02
5.600000e-07	-2.587481e-06	-6.225384e-09	-1.835089e+01	-4.098979e+02
5.700000e-07	-2.496346e-06	-6.115882e-09	-1.770455e+01	-4.023570e+02
5.800000e-07	-2.404344e-06	-5.998140e-09	-1.705205e+01	-3.946450e+02
5.900000e-07	-2.311522e-06	-5.876680e-09	-1.639374e+01	-3.867624e+02
6.000000e-07	-2.217839e-06	-5.755317e-09	-1.572932e+01	-3.787102e+02
6.100000e-07	-2.123396e-06	-5.629273e-09	-1.505951e+01	-3.704892e+02
6.200000e-07	-2.028297e-06	-5.499130e-09	-1.438505e+01	-3.620992e+02
6.300000e-07	-1.932444e-06	-5.364156e-09	-1.370525e+01	-3.535385e+02
6.400000e-07	-1.835796e-06	-5.227599e-09	-1.301980e+01	-3.448039e+02
6.500000e-07	-1.738371e-06	-5.090883e-09	-1.232885e+01	-3.358904e+02
6.600000e-07	-1.640228e-06	-4.952784e-09	-1.163280e+01	-3.267914e+02
6.700000e-07	-1.541496e-06	-4.811536e-09	-1.093257e+01	-3.174992e+02
6.800000e-07	-1.442239e-06	-4.667045e-09	-1.022862e+01	-3.080059e+02
6.900000e-07	-1.342471e-06	-4.518279e-09	-9.521054e+00	-2.983036e+02
7.000000e-07	-1.242282e-06	-4.367112e-09	-8.810490e+00	-2.883857e+02
7.100000e-07	-1.141750e-06	-4.212155e-09	-8.097502e+00	-2.782467e+02
7.200000e-07	-1.040875e-06	-4.049215e-09	-7.382081e+00	-2.678830e+02
7.300000e-07	-9.396942e-07	-3.883794e-09	-6.664484e+00	-2.572931e+02
7.400000e-07	-8.382027e-07	-3.716737e-09	-5.944688e+00	-2.464766e+02
7.500000e-07	-7.363611e-07	-3.546744e-09	-5.222408e+00	-2.354345e+02
7.600000e-07	-6.342540e-07	-3.372940e-09	-4.498246e+00	-2.241681e+02
7.700000e-07	-5.319439e-07	-3.195952e-09	-3.772644e+00	-2.126784e+02
7.800000e-07	-4.294956e-07	-3.018537e-09	-3.046062e+00	-2.009651e+02
7.900000e-07	-3.269038e-07	-2.837931e-09	-2.318462e+00	-1.890260e+02
8.000000e-07	-2.241992e-07	-2.651867e-09	-1.590062e+00	-1.768565e+02
8.100000e-07	-1.214179e-07	-2.461939e-09	-8.611181e-01	-1.644491e+02
8.200000e-07	-1.857384e-08	-2.269116e-09	-1.317291e-01	-1.517936e+02
8.300000e-07	8.422267e-08	-2.072047e-09	5.973227e-01	-1.388768e+02
8.400000e-07	1.869938e-07	-1.870778e-09	1.326194e+00	-1.256835e+02
8.500000e-07	2.897812e-07	-1.664099e-09	2.055182e+00	-1.121963e+02
8.600000e-07	3.925308e-07	-1.454141e-09	2.783901e+00	-9.839728e+01
8.700000e-07	4.951844e-07	-1.239079e-09	3.511939e+00	-8.426812e+01
8.800000e-07	5.977168e-07	-1.017316e-09	4.239118e+00	-6.979147e+01
8.900000e-07	7.000988e-07	-7.897211e-10	4.965230e+00	-5.495188e+01
9.000000e-07	8.022829e-07	-5.552864e-10	5.689938e+00	-3.973692e+01
9.100000e-07	9.042064e-07	-3.164591e-10	6.412798e+00	-2.413839e+01
9.200000e-07	1.005702e-06	-7.256184e-11	7.132621e+00	-8.153471e+00
9.300000e-07	1.106757e-06	1.765081e-10	7.849325e+00	8.214041e+00
9.400000e-07	1.207456e-06	4.312875e-10	8.563498e+00	2.495260e+01
9.500000e-07	1.307770e-06	6.894242e-10	9.274942e+00	4.204190e+01
9.600000e-07	1.407703e-06	9.513248e-10	9.983687e+00	5.945206e+01
9.700000e-07	1.507208e-06	1.218466e-09	1.068940e+01	7.714317e+01
9.800000e-07	1.606195e-06	1.488651e-09	1.139143e+01	9.506528e+01
9.900000e-07	1.704505e-06	1.761190e-09	1.208866e+01	1.131589e+02
1.000000e-06	1.801953e-06	2.034747e-09	1.277979e+01	1.313562e+02
1.010000e-06	1.898530e-06	2.310559e-09	1.346472e+01	1.495824e+02
1.020000e-06	1.994325e-06	2.587325e-09	1.414412e+01	1.677586e+02
1.030000e-06	2.089351e-06	2.862221e-09	1.481806e+01	1.858042e+02
1.040000e-06	2.183641e-06	3.134778e-09	1.548679e+01	2.036396e+02
1.050000e-06	2.277195e-06	3.400903e-09	1.615029e+01	2.211899e+02
1.060000e-06	2.370025e-06	3.660576e-09	1.680865e+01	2.383874e+02
1.070000e-06	2.462196e-06	3.912282e-09	1.746234e+01	2.551740e+02
1.080000e-06	2.553655e-06	4.157429e-09	1.811099e+01	2.715033e+02
1.090000e-06	2.644116e-06	4.396374e-09	1.875256e+01	2.873415e+02
1.100000e-06	2.733332e-06	4.627489e-09	1.938530e+01	3.026671e+02
1.110000e-06	2.821465e-06	4.849350e-09	2.001035e+01	3.174709e+02
1.120000e-06	2.908681e-06	5.064502e-09	2.062890e+01	3.317537e+02
1.130000e-06	2.994972e-06	5.275782e-09	2.124089e+01	3.455244e+02
1.140000e-06	3.080315e-06	5.481005e-09	2.184616e+01	3.587975e+02
1.150000e-06	3.164713e-06	5.676852e-09	2.244473e+01	3.715901e+02
1.160000e-06	3.248150e-06	5.863782e-09	2.303648e+01	3.839200e+02
1.170000e-06	3.330430e-06	6.044793e-09	2.362003e+01	3.958030e+02
1.180000e-06	3.411446e-06	6.218835e-09	2.419460e+01	4.072517e+02
1.190000e-06	3.491249e-06	6.386156e-09	2.476058e+01	4.182753e+02
1.200000e-06	3.569810e-06	6.546127e-09	2.531775e+01	4.288790e+02
1.210000e-06	3.647085e-06	6.700211e-09	2.586580e+01	4.390652e+02
1.220000e-06	3.723072e-06	6.847938e-09	2.640471e+01	4.488346e+02
1.230000e-06	3.797622e-06	6.991901e-09	2.693343e+01	4.581878e+02
1.240000e-06	3.870530e-06	7.131190e-09	2.745051e+01	4.671269e+02
1.250000e-06	3.941936e-06	7.263611e-09	2.795694e+01	4.756571e+02
1.260000e-06	4.011942e-06	7.386666e-09	2.845343e+01	4.837873e+02
1.270000e-06	4.080536e-06	7.500878e-09	2.893991e+01	4.915308e+02
1.280000e-06	4.147784e-06	7.609929e-09	2.941685e+01	4.989053e+02
1.290000e-06	4.213391e-06	7.714179e-09	2.988215e+01	5.059319e+02
1.300000e-06	4.277310e-06	7.814467e-09	3.033547e+01	5.126339e+02
1.310000e-06	4.339797e-06	7.910412e-09	3.077864e+01	5.190357e+02
1.320000e-06	4.400841e-06	8.003418e-09	3.121157e+01	5.251606e+02
1.330000e-06	4.460523e-06	8.093881e-09	3.163485e+01	5.310298e+02
1.340000e-06	4.518605e-06	8.181752e-09	3.204678e+01	5.366610e+02
1.350000e-06	4.574833e-06	8.266753e-09	3.244556e+01	5.420677e+02
1.360000e-06	4.629411e-06	8.344996e-09	3.283264e+01	5.472590e+02
1.370000e-06	4.682302e-06	8.417274e-09	3.320775e+01	5.522396e+02
1.380000e-06	4.733223e-06	8.486470e-09	3.356889e+01	5.570106e+02
1.390000e-06	4.782134e-06	8.554577e-09	3.391578e+01	5.615710e+02
1.400000e-06	4.829257e-06	8.621304e-09	3.424998e+01	5.659178e+02
1.410000e-06	4.874741e-06	8.684741e-09	3.457256e+01	5.700481e+02
1.420000e-06	4.918733e-06	8.746176e-09	3.488456e+01	5.739597e+02
1.430000e-06	4.960933e-06	8.805272e-09	3.518385e+01	5.776517e+02
1.440000e-06	5.001152e-06	8.860115e-09	3.546909e+01	5.811250e+02
1.450000e-06	5.039679e-06	8.910616e-09	3.574233e+01	5.843822e+02
1.460000e-06	5.076648e-06	8.956278e-09	3.600452e+01	5.874274e+02
1.470000e-06	5.112023e-06	8.995690e-09	3.625541e+01	5.902658e+02
1.480000e-06	5.145441e-06	9.030444e-09	3.649241e+01	5.929029e+02
1.490000e-06	5.176884e-06	9.062822e-09	3.671541e+01	5.953442e+02
1.500000e-06	5.206613e-06	9.094047e-09	3.692626e+01	5.975948e+02
1.510000e-06	5.234665e-06	9.124020e-09	3.712521e+01	5.996589e+02
1.520000e-06	5.260828e-06	9.152045e-09	3.731076e+01	6.015403e+02
1.530000e-06	5.284891e-06	9.178128e-09	3.748142e+01	6.032424e+02
1.540000e-06	5.307006e-06	9.200431e-09	3.763826e+01	6.047686e+02
1.550000e-06	5.327420e-06	9.219534e-09	3.778304e+01	6.061224e+02
1.560000e-06	5.346105e-06	9.237138e-09	3.791556e+01	6.073085e+02
1.570000e-06	5.362766e-06	9.252756e-09	3.803373e+01	6.083322e+02
1.580000e-06	5.377385e-06	9.264923e-09	3.813740e+01	6.091999e+02
1.590000e-06	5.390085e-06	9.273769e-09	3.822747e+01	6.099186e+02
1.600000e-06	5.400552e-06	9.281658e-09	3.830171e+01	6.104953e+02
1.610000e-06	5.408755e-06	9.289027e-09	3.835989e+01	6.109368e+02
1.620000e-06	5.415045e-06	9.294934e-09	3.840450e+01	6.112486e+02
1.630000e-06	5.419601e-06	9.299447e-09	3.843681e+01	6.114348e+02
1.640000e-06	5.422262e-06	9.303143e-09	3.845568e+01	6.114972e+02
1.650000e-06	5.422871e-06	9.305479e-09	3.846000e+01	6.114357e+02
1.660000e-06	5.421657e-06	9.300855e-09	3.845139e+01	6.112483e+02
1.670000e-06	5.418783e-06	9.291870e-09	3.843101e+01	6.109320e+02
1.680000e-06	5.414258e-06	9.283782e-09	3.839891e+01	6.104833e+02
1.690000e-06	5.407834e-06	9.274624e-09	3.835336e+01	6.098995e+02
1.700000e-06	5.399569e-06	9.264110e-09	3.829474e+01	6.091797e+02
1.710000e-06	5.389721e-06	9.255534e-09	3.822489e+01	6.083255e+02
1.720000e-06	5.378160e-06	9.255375e-09	3.814290e+01	6.073418e+02
1.730000e-06	5.364656e-06	9.243817e-09	3.804713e+01	6.062368e+02
1.740000e-06	5.349074e-06	9.159981e-09	3.793661e+01	6.050216e+02
1.750000e-06	5.331181e-06	9.139509e-09	3.780972e+01	6.037093e+02
1.760000e-06	5.310597e-06	9.144223e-09	3.766373e+01	6.023136e+02
1.770000e-06	5.287589e-06	9.148431e-09	3.750056e+01	6.008478e+02
1.780000e-06	5.263158e-06	9.221744e-09	3.732729e+01	5.993223e+02
1.790000e-06	5.238049e-06	9.071355e-09	3.714921e+01	5.977440e+02
1.800000e-06	5.211685e-06	9.013891e-09	3.696223e+01	5.961146e+02
1.810000e-06	5.183136e-06	9.111800e-09	3.675975e+01	5.944302e+02
1.820000e-06	5.152701e-06	8.957552e-09	3.654391e+01	5.926813e+02
1.830000e-06	5.120640e-06	8.999340e-09	3.631652e+01	5.908535e+02
1.840000e-06	5.086607e-06	9.064832e-09	3.607516e+01	5.889288e+02
1.850000e-06	5.050919e-06	8.860468e-09	3.582204e+01	5.868870e+02
1.860000e-06	5.013456e-06	8.925743e-09	3.555635e+01	5.847081e+02
1.870000e-06	4.974026e-06	8.929582e-09	3.527671e+01	5.823739e+02
1.880000e-06	4.932976e-06	8.773414e-09	3.498557e+01	5.798700e+02
1.890000e-06	4.890092e-06	8.818872e-09	3.468143e+01	5.771872e+02
1.900000e-06	4.845526e-06	8.714812e-09	3.436536e+01	5.743216e+02
1.910000e-06	4.799160e-06	8.682475e-09	3.403652e+01	5.712757e+02
1.920000e-06	4.750668e-06	8.683222e-09	3.369261e+01	5.680568e+02
1.930000e-06	4.700592e-06	8.541269e-09	3.333746e+01	5.646765e+02
1.940000e-06	4.648882e-06	8.606396e-09	3.297073e+01	5.611485e+02
1.950000e-06	4.595095e-06	8.524125e-09	3.258926e+01	5.574874e+02
1.960000e-06	4.539351e-06	8.384743e-09	3.219392e+01	5.537066e+02
1.970000e-06	4.481847e-06	8.361395e-09	3.178608e+01	5.498167e+02
1.980000e-06	4.422896e-06	8.299957e-09	3.136799e+01	5.458245e+02
1.990000e-06	4.362457e-06	8.292108e-09	3.093935e+01	5.417328e+02
2.000000e-06	4.300304e-06	8.165619e-09	3.049854e+01	5.375397e+02
2.010000e-06	4.236578e-06	8.118400e-09	3.004659e+01	5.332397e+02
2.020000e-06	4.171321e-06	8.091296e-09	2.958378e+01	5.288247e+02
2.030000e-06	4.104584e-06	7.944502e-09	2.911046e+01	5.242850e+02
2.040000e-06	4.036423e-06	7.919191e-09	2.862706e+01	5.196106e+02
2.050000e-06	3.966780e-06	7.860465e-09	2.813313e+01	5.147928e+02
2.060000e-06	3.895617e-06	7.783437e-09	2.762843e+01	5.098248e+02
2.070000e-06	3.823056e-06	7.677575e-09	2.711382e+01	5.047024e+02
2.080000e-06	3.749207e-06	7.582938e-09	2.659007e+01	4.994242e+02
2.090000e-06	3.673941e-06	7.554302e-09	2.605627e+01	4.939909e+02
2.100000e-06	3.597162e-06	7.447322e-09	2.551174e+01	4.884054e+02
2.110000e-06	3.518814e-06	7.346633e-09	2.495608e+01	4.826711e+02
2.120000e-06	3.439125e-06	7.254768e-09	2.439091e+01	4.767916e+02
2.130000e-06	3.358316e-06	7.177932e-09	2.381780e+01	4.707698e+02
2.140000e-06	3.276326e-06	7.085407e-09	2.323630e+01	4.646068e+02
2.150000e-06	3.193248e-06	6.984721e-09	2.264710e+01	4.583022e+02
2.160000e-06	3.109124e-06	6.906736e-09	2.205048e+01	4.518536e+02
2.170000e-06	3.023780e-06	6.791456e-09	2.144520e+01	4.452571e+02
2.180000e-06	2.937180e-06	6.677787e-09	2.083102e+01	4.385077e+02
2.190000e-06	2.849468e-06	6.568278e-09	2.020895e+01	4.316003e+02
2.200000e-06	2.760774e-06	6.476402e-09	1.957992e+01	4.245299e+02
2.210000e-06	2.671152e-06	6.375696e-09	1.894430e+01	4.172925e+02
2.220000e-06	2.580589e-06	6.252806e-09	1.830201e+01	4.098855e+02
2.230000e-06	2.489176e-06	6.136246e-09	1.765370e+01	4.023074e+02
2.240000e-06	2.396955e-06	6.018994e-09	1.699965e+01	3.945583e+02
2.250000e-06	2.303852e-06	5.904796e-09	1.633934e+01	3.866388e+02
2.260000e-06	2.209887e-06	5.781200e-09	1.567292e+01	3.785499e+02
2.270000e-06	2.115025e-06	5.652801e-09	1.500015e+01	3.702923e+02
2.280000e-06	2.019224e-06	5.522303e-09	1.432071e+01	3.618654e+02
2.290000e-06	1.922690e-06	5.391198e-09	1.363607e+01	3.532673e+02
2.300000e-06	1.825641e-06	5.260336e-09	1.294778e+01	3.444944e+02
2.310000e-06	1.728080e-06	5.129433e-09	1.225586e+01	3.355412e+02
2.320000e-06	1.629909e-06	4.990284e-09	1.155962e+01	3.264010e+02
2.330000e-06	1.531207e-06	4.840781e-09	1.085960e+01	3.170659e+02
2.340000e-06	1.432087e-06	4.693917e-09	1.015662e+01	3.075279e+02
2.350000e-06	1.332563e-06	4.547873e-09	9.450782e+00	2.977795e+02
2.360000e-06	1.232651e-06	4.403661e-09	8.742185e+00	2.878141e+02
2.370000e-06	1.132342e-06	4.251822e-09	8.030780e+00	2.776267e+02
2.380000e-06	1.031673e-06	4.087977e-09	7.316817e+00	2.672142e+02
2.390000e-06	9.305787e-07	3.923968e-09	6.599835e+00	2.565752e+02
2.400000e-06	8.290960e-07	3.762749e-09	5.880101e+00	2.457097e+02
2.410000e-06	7.273236e-07	3.599845e-09	5.158313e+00	2.346190e+02
2.420000e-06	6.252214e-07	3.429018e-09	4.434186e+00	2.233042e+02
2.430000e-06	5.228428e-07	3.249425e-09	3.708097e+00	2.117662e+02
2.440000e-06	4.203119e-07	3.068754e-09	2.980929e+00	2.000043e+02
2.450000e-06	3.175991e-07	2.887700e-09	2.252472e+00	1.880158e+02
2.460000e-06	2.146642e-07	2.703070e-09	1.522438e+00	1.757956e+02
2.470000e-06	1.115677e-07	2.517025e-09	7.912587e-01	1.633355e+02
2.480000e-06	8.394013e-09	2.322298e-09	5.953189e-02	1.506247e+02
2.490000e-06	-9.475857e-08	2.118637e-09	-6.720452e-01	1.376496e+02
2.500000e-06	-1.978593e-07	1.914735e-09	-1.403255e+00	1.243943e+02
2.510000e-06	-3.008805e-07	1.712145e-09	-2.133900e+00	1.108414e+02
2.520000e-06	-4.037820e-07	1.506561e-09	-2.863697e+00	9.697262e+01
2.530000e-06	-5.065277e-07	1.290365e-09	-3.592388e+00	8.276993e+01
2.540000e-06	-6.090629e-07	1.068689e-09	-4.319586e+00	6.821624e+01
2.550000e-06	-7.113338e-07	8.428847e-10	-5.044910e+00	5.329665e+01
2.560000e-06	-8.132646e-07	6.078737e-10	-5.767822e+00	3.799954e+01
2.570000e-06	-9.147884e-07	3.660747e-10	-6.487848e+00	2.231776e+01
2.580000e-06	-1.015894e-06	1.196189e-10	-7.204910e+00	6.249812e+00
2.590000e-06	-1.116589e-06	-1.327444e-10	-7.919056e+00	-1.019895e+01
2.600000e-06	-1.216891e-06	-3.907108e-10	-8.630414e+00	-2.701518e+01
2.610000e-06	-1.316803e-06	-6.496027e-10	-9.339012e+00	-4.417657e+01
2.620000e-06	-1.416248e-06	-9.125025e-10	-1.004429e+01	-6.165112e+01
2.630000e-06	-1.515131e-06	-1.183438e-09	-1.074559e+01	-7.939675e+01
2.640000e-06	-1.613467e-06	-1.460927e-09	-1.144300e+01	-9.736141e+01
2.650000e-06	-1.711268e-06	-1.742663e-09	-1.213663e+01	-1.154837e+02
2.660000e-06	-1.808466e-06	-2.025715e-09	-1.282597e+01	-1.336941e+02
2.670000e-06	-1.905132e-06	-2.307058e-09	-1.351154e+01	-1.519169e+02
2.680000e-06	-2.001324e-06	-2.584429e-09	-1.419376e+01	-1.700724e+02
2.690000e-06	-2.096864e-06	-2.860833e-09	-1.487134e+01	-1.880800e+02
2.700000e-06	-2.191458e-06	-3.136563e-09	-1.554223e+01	-2.058609e+02
2.710000e-06	-2.285011e-06	-3.406938e-09	-1.620572e+01	-2.233414e+02
2.720000e-06	-2.377638e-06	-3.668092e-09	-1.686265e+01	-2.404559e+02
2.730000e-06	-2.469386e-06	-3.920480e-09	-1.751334e+01	-2.571485e+02
2.740000e-06	-2.560248e-06	-4.166871e-09	-1.815775e+01	-2.733755e+02
2.750000e-06	-2.650186e-06	-4.406099e-09	-1.879561e+01	-2.891056e+02
2.760000e-06	-2.739242e-06	-4.639636e-09	-1.942721e+01	-3.043204e+02
2.770000e-06	-2.827534e-06	-4.867788e-09	-2.005339e+01	-3.190126e+02
2.780000e-06	-2.914982e-06	-5.088211e-09	-2.067359e+01	-3.331851e+02
2.790000e-06	-3.001277e-06	-5.300663e-09	-2.128561e+01	-3.468483e+02
2.800000e-06	-3.086294e-06	-5.506143e-09	-2.188857e+01	-3.600175e+02
2.810000e-06	-3.170197e-06	-5.702360e-09	-2.248362e+01	-3.727100e+02
2.820000e-06	-3.253070e-06	-5.887393e-09	-2.307137e+01	-3.849433e+02
2.830000e-06	-3.334911e-06	-6.064127e-09	-2.365180e+01	-3.967328e+02
2.840000e-06	-3.415716e-06	-6.234771e-09	-2.422489e+01	-4.080903e+02
2.850000e-06	-3.495369e-06	-6.399687e-09	-2.478980e+01	-4.190241e+02
2.860000e-06	-3.573596e-06	-6.558792e-09	-2.534460e+01	-4.295387e+02
2.870000e-06	-3.650243e-06	-6.712525e-09	-2.588819e+01	-4.396360e+02
2.880000e-06	-3.725420e-06	-6.860722e-09	-2.642136e+01	-4.493166e+02
2.890000e-06	-3.799193e-06	-7.002891e-09	-2.694458e+01	-4.585813e+02
2.900000e-06	-3.871753e-06	-7.139839e-09	-2.745919e+01	-4.674327e+02
2.910000e-06	-3.942998e-06	-7.273068e-09	-2.796447e+01	-4.758767e+02
2.920000e-06	-4.012557e-06	-7.398100e-09	-2.845779e+01	-4.839233e+02
2.930000e-06	-4.080532e-06	-7.512988e-09	-2.893988e+01	-4.915866e+02
2.940000e-06	-4.147086e-06	-7.622717e-09	-2.941190e+01	-4.988852e+02
