# Temperatura_=_70.1
# Concentracion g/m^3_=_15000.0
# C_Vs_to_Am_M_A/Vsm_=_65563218390.804596
# pendiente_HvsI_1/m_=_3716.3
# ordenada_HvsI_A/m_=_1297.0
# frecuencia_Hz_=_301595.30421778513

Tiempo_(s)	Campo_(V.s)	Magnetizacion_(V.s)	Campo_(kA/m)	Magnetizacion_(A/m)
0.000000e+00	-5.410743e-06	-9.183159e-09	-3.833958e+01	-6.002998e+02
1.000000e-08	-5.408077e-06	-9.180467e-09	-3.832068e+01	-6.000578e+02
2.000000e-08	-5.403604e-06	-9.175082e-09	-3.828899e+01	-5.996825e+02
3.000000e-08	-5.397484e-06	-9.170267e-09	-3.824562e+01	-5.991705e+02
4.000000e-08	-5.389733e-06	-9.160211e-09	-3.819070e+01	-5.985213e+02
5.000000e-08	-5.380142e-06	-9.144955e-09	-3.812274e+01	-5.977373e+02
6.000000e-08	-5.368528e-06	-9.127046e-09	-3.804045e+01	-5.968250e+02
7.000000e-08	-5.355104e-06	-9.101686e-09	-3.794532e+01	-5.957940e+02
8.000000e-08	-5.339612e-06	-9.109664e-09	-3.783555e+01	-5.946571e+02
9.000000e-08	-5.321796e-06	-9.144527e-09	-3.770931e+01	-5.934290e+02
1.000000e-07	-5.301940e-06	-9.105731e-09	-3.756861e+01	-5.921243e+02
1.100000e-07	-5.280197e-06	-9.051562e-09	-3.741455e+01	-5.907564e+02
1.200000e-07	-5.256708e-06	-8.994432e-09	-3.724811e+01	-5.893355e+02
1.300000e-07	-5.231688e-06	-8.888202e-09	-3.707082e+01	-5.878670e+02
1.400000e-07	-5.205054e-06	-8.975225e-09	-3.688209e+01	-5.863510e+02
1.500000e-07	-5.176731e-06	-9.010376e-09	-3.668140e+01	-5.847813e+02
1.600000e-07	-5.146939e-06	-8.857404e-09	-3.647030e+01	-5.831461e+02
1.700000e-07	-5.115620e-06	-8.929755e-09	-3.624838e+01	-5.814290e+02
1.800000e-07	-5.082213e-06	-8.869854e-09	-3.601167e+01	-5.796101e+02
1.900000e-07	-5.046890e-06	-8.722197e-09	-3.576138e+01	-5.776685e+02
2.000000e-07	-5.010068e-06	-8.831540e-09	-3.550046e+01	-5.755840e+02
2.100000e-07	-4.971473e-06	-8.752246e-09	-3.522698e+01	-5.733392e+02
2.200000e-07	-4.931063e-06	-8.628203e-09	-3.494064e+01	-5.709214e+02
2.300000e-07	-4.888691e-06	-8.676780e-09	-3.464040e+01	-5.683232e+02
2.400000e-07	-4.844375e-06	-8.623281e-09	-3.432639e+01	-5.655435e+02
2.500000e-07	-4.798322e-06	-8.585135e-09	-3.400007e+01	-5.625871e+02
2.600000e-07	-4.750382e-06	-8.545093e-09	-3.366037e+01	-5.594633e+02
2.700000e-07	-4.700295e-06	-8.451771e-09	-3.330546e+01	-5.561851e+02
2.800000e-07	-4.648034e-06	-8.414568e-09	-3.293515e+01	-5.527672e+02
2.900000e-07	-4.593954e-06	-8.356398e-09	-3.255195e+01	-5.492236e+02
3.000000e-07	-4.538384e-06	-8.300318e-09	-3.215819e+01	-5.455667e+02
3.100000e-07	-4.481096e-06	-8.266156e-09	-3.175226e+01	-5.418051e+02
3.200000e-07	-4.421932e-06	-8.217823e-09	-3.133304e+01	-5.379433e+02
3.300000e-07	-4.361202e-06	-8.128621e-09	-3.090271e+01	-5.339813e+02
3.400000e-07	-4.299036e-06	-8.056431e-09	-3.046221e+01	-5.299147e+02
3.500000e-07	-4.235530e-06	-8.039852e-09	-3.001222e+01	-5.257360e+02
3.600000e-07	-4.170497e-06	-7.954791e-09	-2.955141e+01	-5.214354e+02
3.700000e-07	-4.103698e-06	-7.856498e-09	-2.907808e+01	-5.170029e+02
3.800000e-07	-4.035300e-06	-7.804737e-09	-2.859343e+01	-5.124290e+02
3.900000e-07	-3.965590e-06	-7.728837e-09	-2.809947e+01	-5.077062e+02
4.000000e-07	-3.894726e-06	-7.650580e-09	-2.759734e+01	-5.028298e+02
4.100000e-07	-3.822600e-06	-7.576774e-09	-2.708627e+01	-4.977983e+02
4.200000e-07	-3.748963e-06	-7.512660e-09	-2.656449e+01	-4.926129e+02
4.300000e-07	-3.673709e-06	-7.427595e-09	-2.603126e+01	-4.872773e+02
4.400000e-07	-3.596941e-06	-7.329854e-09	-2.548729e+01	-4.817965e+02
4.500000e-07	-3.518716e-06	-7.251095e-09	-2.493300e+01	-4.761757e+02
4.600000e-07	-3.439023e-06	-7.176734e-09	-2.436831e+01	-4.704196e+02
4.700000e-07	-3.358037e-06	-7.086082e-09	-2.379446e+01	-4.645310e+02
4.800000e-07	-3.275913e-06	-6.977184e-09	-2.321254e+01	-4.585105e+02
4.900000e-07	-3.192720e-06	-6.888407e-09	-2.262305e+01	-4.523562e+02
5.000000e-07	-3.108529e-06	-6.799172e-09	-2.202649e+01	-4.460639e+02
5.100000e-07	-3.023348e-06	-6.692091e-09	-2.142291e+01	-4.396276e+02
5.200000e-07	-2.937194e-06	-6.588682e-09	-2.081244e+01	-4.330405e+02
5.300000e-07	-2.850057e-06	-6.487119e-09	-2.019501e+01	-4.262956e+02
5.400000e-07	-2.762073e-06	-6.380647e-09	-1.957156e+01	-4.193867e+02
5.500000e-07	-2.673112e-06	-6.271914e-09	-1.894120e+01	-4.123094e+02
5.600000e-07	-2.582893e-06	-6.163140e-09	-1.830193e+01	-4.050608e+02
5.700000e-07	-2.491615e-06	-6.051259e-09	-1.765514e+01	-3.976406e+02
5.800000e-07	-2.399495e-06	-5.930357e-09	-1.700240e+01	-3.900500e+02
5.900000e-07	-2.306532e-06	-5.808767e-09	-1.634368e+01	-3.822915e+02
6.000000e-07	-2.212748e-06	-5.690650e-09	-1.567914e+01	-3.743681e+02
6.100000e-07	-2.118202e-06	-5.569255e-09	-1.500921e+01	-3.662826e+02
6.200000e-07	-2.022932e-06	-5.444083e-09	-1.433414e+01	-3.580362e+02
6.300000e-07	-1.926953e-06	-5.315051e-09	-1.365405e+01	-3.496288e+02
6.400000e-07	-1.830216e-06	-5.182952e-09	-1.296859e+01	-3.410575e+02
6.500000e-07	-1.732662e-06	-5.048150e-09	-1.227734e+01	-3.323176e+02
6.600000e-07	-1.634314e-06	-4.909173e-09	-1.158046e+01	-3.234018e+02
6.700000e-07	-1.535313e-06	-4.767641e-09	-1.087896e+01	-3.143016e+02
6.800000e-07	-1.435796e-06	-4.624485e-09	-1.017380e+01	-3.050075e+02
6.900000e-07	-1.335838e-06	-4.478462e-09	-9.465516e+00	-2.955100e+02
7.000000e-07	-1.235541e-06	-4.331624e-09	-8.754825e+00	-2.858000e+02
7.100000e-07	-1.134929e-06	-4.179737e-09	-8.041906e+00	-2.758703e+02
7.200000e-07	-1.033958e-06	-4.019692e-09	-7.326443e+00	-2.657151e+02
7.300000e-07	-9.326999e-07	-3.858198e-09	-6.608947e+00	-2.553308e+02
7.400000e-07	-8.311149e-07	-3.696004e-09	-5.889134e+00	-2.447156e+02
7.500000e-07	-7.291367e-07	-3.530384e-09	-5.166534e+00	-2.338691e+02
7.600000e-07	-6.268745e-07	-3.359210e-09	-4.441923e+00	-2.227919e+02
7.700000e-07	-5.244233e-07	-3.183016e-09	-3.715971e+00	-2.114844e+02
7.800000e-07	-4.218481e-07	-3.005517e-09	-2.989142e+00	-1.999469e+02
7.900000e-07	-3.191822e-07	-2.827021e-09	-2.261669e+00	-1.881778e+02
8.000000e-07	-2.164295e-07	-2.645124e-09	-1.533581e+00	-1.761739e+02
8.100000e-07	-1.135574e-07	-2.459103e-09	-8.046480e-01	-1.639294e+02
8.200000e-07	-1.060641e-08	-2.269302e-09	-7.515518e-02	-1.514359e+02
8.300000e-07	9.235380e-08	-2.075838e-09	6.544028e-01	-1.386823e+02
8.400000e-07	1.952799e-07	-1.878658e-09	1.383719e+00	-1.256552e+02
8.500000e-07	2.981623e-07	-1.676261e-09	2.112725e+00	-1.123388e+02
8.600000e-07	4.010015e-07	-1.469799e-09	2.841426e+00	-9.871630e+01
8.700000e-07	5.037145e-07	-1.256797e-09	3.569232e+00	-8.476987e+01
8.800000e-07	6.062828e-07	-1.037407e-09	4.296013e+00	-7.048204e+01
8.900000e-07	7.087416e-07	-8.148353e-10	5.022018e+00	-5.583661e+01
9.000000e-07	8.110099e-07	-5.870002e-10	5.746673e+00	-4.081984e+01
9.100000e-07	9.129822e-07	-3.533870e-10	6.469232e+00	-2.542186e+01
9.200000e-07	1.014574e-06	-1.132247e-10	7.189093e+00	-9.637968e+00
9.300000e-07	1.115735e-06	1.343107e-10	7.905901e+00	6.529843e+00
9.400000e-07	1.216525e-06	3.876656e-10	8.620081e+00	2.307157e+01
9.500000e-07	1.316959e-06	6.427167e-10	9.331738e+00	3.996795e+01
9.600000e-07	1.417002e-06	9.004873e-10	1.004063e+01	5.718957e+01
9.700000e-07	1.516609e-06	1.163631e-09	1.074642e+01	7.469633e+01
9.800000e-07	1.615597e-06	1.431307e-09	1.144783e+01	9.243749e+01
9.900000e-07	1.713778e-06	1.702005e-09	1.214353e+01	1.103523e+02
1.000000e-06	1.811155e-06	1.973694e-09	1.283352e+01	1.283713e+02
1.010000e-06	1.907768e-06	2.246612e-09	1.351811e+01	1.464185e+02
1.020000e-06	2.003615e-06	2.518963e-09	1.419727e+01	1.644134e+02
1.030000e-06	2.098703e-06	2.790276e-09	1.487104e+01	1.822748e+02
1.040000e-06	2.193049e-06	3.059744e-09	1.553956e+01	1.999230e+02
1.050000e-06	2.286654e-06	3.322202e-09	1.620283e+01	2.172839e+02
1.060000e-06	2.379538e-06	3.577274e-09	1.686099e+01	2.342911e+02
1.070000e-06	2.471696e-06	3.826082e-09	1.751400e+01	2.508888e+02
1.080000e-06	2.563101e-06	4.071117e-09	1.816168e+01	2.670331e+02
1.090000e-06	2.653586e-06	4.310924e-09	1.880284e+01	2.826926e+02
1.100000e-06	2.742883e-06	4.541683e-09	1.943558e+01	2.978485e+02
1.110000e-06	2.831046e-06	4.760771e-09	2.006029e+01	3.124934e+02
1.120000e-06	2.918250e-06	4.972383e-09	2.067821e+01	3.266295e+02
1.130000e-06	3.004503e-06	5.179410e-09	2.128938e+01	3.402658e+02
1.140000e-06	3.089814e-06	5.381168e-09	2.189388e+01	3.534161e+02
1.150000e-06	3.174162e-06	5.575662e-09	2.249155e+01	3.660962e+02
1.160000e-06	3.257525e-06	5.761441e-09	2.308225e+01	3.783212e+02
1.170000e-06	3.339782e-06	5.940917e-09	2.366511e+01	3.901043e+02
1.180000e-06	3.420754e-06	6.112846e-09	2.423886e+01	4.014554e+02
1.190000e-06	3.500455e-06	6.278542e-09	2.480361e+01	4.123808e+02
1.200000e-06	3.578928e-06	6.438084e-09	2.535965e+01	4.228834e+02
1.210000e-06	3.656134e-06	6.590811e-09	2.590672e+01	4.329643e+02
1.220000e-06	3.732078e-06	6.737186e-09	2.644485e+01	4.426234e+02
1.230000e-06	3.806571e-06	6.878646e-09	2.697269e+01	4.518614e+02
1.240000e-06	3.879402e-06	7.014752e-09	2.748876e+01	4.606814e+02
1.250000e-06	3.950731e-06	7.143920e-09	2.799418e+01	4.690898e+02
1.260000e-06	4.020699e-06	7.263631e-09	2.848997e+01	4.770971e+02
1.270000e-06	4.089290e-06	7.376198e-09	2.897599e+01	4.847182e+02
1.280000e-06	4.156467e-06	7.484290e-09	2.945199e+01	4.919721e+02
1.290000e-06	4.222025e-06	7.588119e-09	2.991653e+01	4.988805e+02
1.300000e-06	4.285911e-06	7.688505e-09	3.036921e+01	5.054671e+02
1.310000e-06	4.348323e-06	7.784129e-09	3.081145e+01	5.117556e+02
1.320000e-06	4.409370e-06	7.875128e-09	3.124402e+01	5.177685e+02
1.330000e-06	4.469031e-06	7.962770e-09	3.166677e+01	5.235256e+02
1.340000e-06	4.527069e-06	8.047993e-09	3.207802e+01	5.290434e+02
1.350000e-06	4.583284e-06	8.128874e-09	3.247634e+01	5.343340e+02
1.360000e-06	4.637783e-06	8.203065e-09	3.286251e+01	5.394058e+02
1.370000e-06	4.690620e-06	8.273660e-09	3.323691e+01	5.442633e+02
1.380000e-06	4.741560e-06	8.343741e-09	3.359786e+01	5.489081e+02
1.390000e-06	4.790430e-06	8.412601e-09	3.394414e+01	5.533400e+02
1.400000e-06	4.837473e-06	8.477616e-09	3.427748e+01	5.575580e+02
1.410000e-06	4.882884e-06	8.538290e-09	3.459925e+01	5.615610e+02
1.420000e-06	4.926690e-06	8.595505e-09	3.490966e+01	5.653489e+02
1.430000e-06	4.968761e-06	8.649039e-09	3.520776e+01	5.689228e+02
1.440000e-06	5.008949e-06	8.700574e-09	3.549253e+01	5.722851e+02
1.450000e-06	5.047415e-06	8.750332e-09	3.576510e+01	5.754395e+02
1.460000e-06	5.084267e-06	8.795198e-09	3.602622e+01	5.783906e+02
1.470000e-06	5.119420e-06	8.833693e-09	3.627531e+01	5.811433e+02
1.480000e-06	5.152632e-06	8.868822e-09	3.651065e+01	5.837026e+02
1.490000e-06	5.183978e-06	8.902494e-09	3.673276e+01	5.860732e+02
1.500000e-06	5.213639e-06	8.933024e-09	3.694293e+01	5.882590e+02
1.510000e-06	5.241630e-06	8.960915e-09	3.714127e+01	5.902637e+02
1.520000e-06	5.267664e-06	8.986870e-09	3.732574e+01	5.920904e+02
1.530000e-06	5.291560e-06	9.011555e-09	3.749507e+01	5.937426e+02
1.540000e-06	5.313540e-06	9.033401e-09	3.765081e+01	5.952243e+02
1.550000e-06	5.333838e-06	9.051545e-09	3.779463e+01	5.965400e+02
1.560000e-06	5.352301e-06	9.067421e-09	3.792546e+01	5.976957e+02
1.570000e-06	5.368680e-06	9.080958e-09	3.804152e+01	5.986981e+02
1.580000e-06	5.383065e-06	9.093030e-09	3.814345e+01	5.995546e+02
1.590000e-06	5.395518e-06	9.103891e-09	3.823169e+01	6.002731e+02
1.600000e-06	5.405842e-06	9.113298e-09	3.830484e+01	6.008608e+02
1.610000e-06	5.413968e-06	9.120855e-09	3.836242e+01	6.013238e+02
1.620000e-06	5.420198e-06	9.126631e-09	3.840657e+01	6.016665e+02
1.630000e-06	5.424684e-06	9.132120e-09	3.843836e+01	6.018909e+02
1.640000e-06	5.427242e-06	9.136631e-09	3.845648e+01	6.019966e+02
1.650000e-06	5.427739e-06	9.138156e-09	3.846000e+01	6.019813e+02
1.660000e-06	5.426396e-06	9.132737e-09	3.845049e+01	6.018407e+02
1.670000e-06	5.423405e-06	9.125220e-09	3.842929e+01	6.015701e+02
1.680000e-06	5.418647e-06	9.119361e-09	3.839558e+01	6.011653e+02
1.690000e-06	5.411935e-06	9.110936e-09	3.834802e+01	6.006235e+02
1.700000e-06	5.403447e-06	9.101411e-09	3.828787e+01	5.999447e+02
1.710000e-06	5.393434e-06	9.093947e-09	3.821692e+01	5.991323e+02
1.720000e-06	5.381747e-06	9.096458e-09	3.813411e+01	5.981932e+02
1.730000e-06	5.368051e-06	9.075863e-09	3.803707e+01	5.971380e+02
1.740000e-06	5.352271e-06	8.990407e-09	3.792525e+01	5.959800e+02
1.750000e-06	5.334211e-06	8.974702e-09	3.779728e+01	5.947339e+02
1.760000e-06	5.313446e-06	8.979216e-09	3.765015e+01	5.934142e+02
1.770000e-06	5.290347e-06	9.001993e-09	3.748647e+01	5.920339e+02
1.780000e-06	5.265912e-06	9.068607e-09	3.731333e+01	5.906021e+02
1.790000e-06	5.240717e-06	8.899874e-09	3.713480e+01	5.891233e+02
1.800000e-06	5.214201e-06	8.860005e-09	3.694691e+01	5.875962e+02
1.810000e-06	5.185491e-06	8.952300e-09	3.674348e+01	5.860132e+02
1.820000e-06	5.154843e-06	8.802688e-09	3.652631e+01	5.843617e+02
1.830000e-06	5.122528e-06	8.883677e-09	3.629733e+01	5.826241e+02
1.840000e-06	5.088319e-06	8.948684e-09	3.605493e+01	5.807803e+02
1.850000e-06	5.052514e-06	8.750044e-09	3.580123e+01	5.788094e+02
1.860000e-06	5.014885e-06	8.843445e-09	3.553459e+01	5.766915e+02
1.870000e-06	4.975325e-06	8.833117e-09	3.525428e+01	5.744102e+02
1.880000e-06	4.934137e-06	8.671913e-09	3.496243e+01	5.719537e+02
1.890000e-06	4.891082e-06	8.728111e-09	3.465734e+01	5.693162e+02
1.900000e-06	4.846346e-06	8.621960e-09	3.434036e+01	5.664977e+02
1.910000e-06	4.799872e-06	8.600546e-09	3.401105e+01	5.635041e+02
1.920000e-06	4.751343e-06	8.594486e-09	3.366718e+01	5.603457e+02
1.930000e-06	4.701166e-06	8.449485e-09	3.331164e+01	5.570360e+02
1.940000e-06	4.649257e-06	8.513502e-09	3.294381e+01	5.535896e+02
1.950000e-06	4.595200e-06	8.427460e-09	3.256078e+01	5.500205e+02
1.960000e-06	4.539184e-06	8.299714e-09	3.216386e+01	5.463402e+02
1.970000e-06	4.481480e-06	8.276598e-09	3.175498e+01	5.425565e+02
1.980000e-06	4.422353e-06	8.220974e-09	3.133602e+01	5.386731e+02
1.990000e-06	4.361715e-06	8.203932e-09	3.090635e+01	5.346887e+02
2.000000e-06	4.299344e-06	8.068900e-09	3.046440e+01	5.305985e+02
2.010000e-06	4.235402e-06	8.043912e-09	3.001132e+01	5.263941e+02
2.020000e-06	4.169955e-06	8.016490e-09	2.954757e+01	5.220658e+02
2.030000e-06	4.103066e-06	7.869757e-09	2.907361e+01	5.176034e+02
2.040000e-06	4.034756e-06	7.848071e-09	2.858957e+01	5.129978e+02
2.050000e-06	3.964878e-06	7.782552e-09	2.809443e+01	5.082420e+02
2.060000e-06	3.893450e-06	7.702952e-09	2.758830e+01	5.033320e+02
2.070000e-06	3.820670e-06	7.591094e-09	2.707259e+01	4.982670e+02
2.080000e-06	3.746635e-06	7.503752e-09	2.654800e+01	4.930486e+02
2.090000e-06	3.671200e-06	7.481534e-09	2.601348e+01	4.876811e+02
2.100000e-06	3.594221e-06	7.375015e-09	2.546802e+01	4.821695e+02
2.110000e-06	3.515663e-06	7.276722e-09	2.491137e+01	4.765191e+02
2.120000e-06	3.435820e-06	7.188978e-09	2.434561e+01	4.707340e+02
2.130000e-06	3.354864e-06	7.113814e-09	2.377198e+01	4.648168e+02
2.140000e-06	3.272735e-06	7.011314e-09	2.319003e+01	4.587675e+02
2.150000e-06	3.189540e-06	6.907795e-09	2.260052e+01	4.525837e+02
2.160000e-06	3.105341e-06	6.833995e-09	2.200390e+01	4.462607e+02
2.170000e-06	3.019975e-06	6.725109e-09	2.139901e+01	4.397924e+02
2.180000e-06	2.933225e-06	6.618318e-09	2.078432e+01	4.331717e+02
2.190000e-06	2.845319e-06	6.512312e-09	2.016143e+01	4.263917e+02
2.200000e-06	2.756510e-06	6.421464e-09	1.953214e+01	4.194467e+02
2.210000e-06	2.666772e-06	6.316921e-09	1.889628e+01	4.123325e+02
2.220000e-06	2.576101e-06	6.193886e-09	1.825380e+01	4.050468e+02
2.230000e-06	2.484578e-06	6.081190e-09	1.760528e+01	3.975895e+02
2.240000e-06	2.392248e-06	5.968453e-09	1.695105e+01	3.899623e+02
2.250000e-06	2.299003e-06	5.854665e-09	1.629033e+01	3.821679e+02
2.260000e-06	2.204845e-06	5.729328e-09	1.562314e+01	3.742092e+02
2.270000e-06	2.109786e-06	5.602008e-09	1.494957e+01	3.660887e+02
2.280000e-06	2.013823e-06	5.474220e-09	1.426959e+01	3.578076e+02
2.290000e-06	1.917220e-06	5.347767e-09	1.358508e+01	3.493650e+02
2.300000e-06	1.820163e-06	5.221086e-09	1.289735e+01	3.407578e+02
2.310000e-06	1.722577e-06	5.093342e-09	1.220588e+01	3.319804e+02
2.320000e-06	1.624347e-06	4.957656e-09	1.150984e+01	3.230256e+02
2.330000e-06	1.525537e-06	4.812433e-09	1.080969e+01	3.138843e+02
2.340000e-06	1.426269e-06	4.667713e-09	1.010629e+01	3.045470e+02
2.350000e-06	1.326592e-06	4.523273e-09	9.399996e+00	2.950043e+02
2.360000e-06	1.226560e-06	4.381012e-09	8.691186e+00	2.852475e+02
2.370000e-06	1.126206e-06	4.231272e-09	7.980095e+00	2.752695e+02
2.380000e-06	1.025533e-06	4.071947e-09	7.266743e+00	2.650651e+02
2.390000e-06	9.244149e-07	3.912755e-09	6.550241e+00	2.546311e+02
2.400000e-06	8.228141e-07	3.755881e-09	5.830316e+00	2.439659e+02
2.410000e-06	7.208388e-07	3.595670e-09	5.107737e+00	2.330695e+02
2.420000e-06	6.185470e-07	3.426690e-09	4.382916e+00	2.219425e+02
2.430000e-06	5.159976e-07	3.251506e-09	3.656268e+00	2.105855e+02
2.440000e-06	4.132678e-07	3.076147e-09	2.928343e+00	1.989981e+02
2.450000e-06	3.103507e-07	2.897263e-09	2.199090e+00	1.871788e+02
2.460000e-06	2.072601e-07	2.712479e-09	1.468608e+00	1.751235e+02
2.470000e-06	1.040484e-07	2.526617e-09	7.372684e-01	1.628261e+02
2.480000e-06	7.800080e-10	2.333504e-09	5.527000e-03	1.502775e+02
2.490000e-06	-1.024898e-07	2.133998e-09	-7.262249e-01	1.374662e+02
2.500000e-06	-2.057316e-07	1.934618e-09	-1.457778e+00	1.243780e+02
2.510000e-06	-3.088830e-07	1.734951e-09	-2.188691e+00	1.109972e+02
2.520000e-06	-4.119219e-07	1.527849e-09	-2.918806e+00	9.730639e+01
2.530000e-06	-5.147599e-07	1.310656e-09	-3.647498e+00	8.328789e+01
2.540000e-06	-6.173880e-07	1.090902e-09	-4.374703e+00	6.892437e+01
2.550000e-06	-7.198032e-07	8.672565e-10	-5.100399e+00	5.420005e+01
2.560000e-06	-8.218769e-07	6.348057e-10	-5.823675e+00	3.910191e+01
2.570000e-06	-9.234962e-07	3.956284e-10	-6.543731e+00	2.362106e+01
2.580000e-06	-1.024643e-06	1.527272e-10	-7.260437e+00	7.754120e+00
2.590000e-06	-1.125367e-06	-9.539518e-11	-7.974152e+00	-8.495317e+00
2.600000e-06	-1.225698e-06	-3.491178e-10	-8.685081e+00	-2.511535e+01
2.610000e-06	-1.325601e-06	-6.057510e-10	-9.392979e+00	-4.208463e+01
2.620000e-06	-1.424969e-06	-8.683986e-10	-1.009708e+01	-5.937145e+01
2.630000e-06	-1.523857e-06	-1.138928e-09	-1.079778e+01	-7.693343e+01
2.640000e-06	-1.622317e-06	-1.414448e-09	-1.149545e+01	-9.471759e+01
2.650000e-06	-1.720212e-06	-1.692923e-09	-1.218912e+01	-1.126612e+02
2.660000e-06	-1.817437e-06	-1.972202e-09	-1.287804e+01	-1.306932e+02
2.670000e-06	-1.914038e-06	-2.250837e-09	-1.356254e+01	-1.487364e+02
2.680000e-06	-2.010104e-06	-2.526520e-09	-1.424324e+01	-1.667099e+02
2.690000e-06	-2.105602e-06	-2.800225e-09	-1.491992e+01	-1.845325e+02
2.700000e-06	-2.200284e-06	-3.070562e-09	-1.559082e+01	-2.021255e+02
2.710000e-06	-2.293949e-06	-3.335316e-09	-1.625452e+01	-2.194162e+02
2.720000e-06	-2.386663e-06	-3.593902e-09	-1.691147e+01	-2.363404e+02
2.730000e-06	-2.478484e-06	-3.845170e-09	-1.756210e+01	-2.528446e+02
2.740000e-06	-2.569443e-06	-4.088909e-09	-1.820662e+01	-2.688875e+02
2.750000e-06	-2.659433e-06	-4.326114e-09	-1.884427e+01	-2.844406e+02
2.760000e-06	-2.748448e-06	-4.558228e-09	-1.947502e+01	-2.994877e+02
2.770000e-06	-2.836676e-06	-4.784235e-09	-2.010019e+01	-3.140235e+02
2.780000e-06	-2.924105e-06	-5.001608e-09	-2.071969e+01	-3.280518e+02
2.790000e-06	-3.010512e-06	-5.210400e-09	-2.133196e+01	-3.415831e+02
2.800000e-06	-3.095626e-06	-5.413240e-09	-2.193506e+01	-3.546317e+02
2.810000e-06	-3.179531e-06	-5.608263e-09	-2.252960e+01	-3.672133e+02
2.820000e-06	-3.262462e-06	-5.793212e-09	-2.311723e+01	-3.793430e+02
2.830000e-06	-3.344310e-06	-5.969120e-09	-2.369719e+01	-3.910332e+02
2.840000e-06	-3.425044e-06	-6.137762e-09	-2.426926e+01	-4.022931e+02
2.850000e-06	-3.504684e-06	-6.300718e-09	-2.483358e+01	-4.131280e+02
2.860000e-06	-3.582922e-06	-6.457242e-09	-2.538796e+01	-4.235407e+02
2.870000e-06	-3.659571e-06	-6.609233e-09	-2.593108e+01	-4.335315e+02
2.880000e-06	-3.734710e-06	-6.756784e-09	-2.646350e+01	-4.431006e+02
2.890000e-06	-3.808459e-06	-6.898012e-09	-2.698607e+01	-4.522490e+02
2.900000e-06	-3.880963e-06	-7.034710e-09	-2.749982e+01	-4.609805e+02
2.910000e-06	-3.952124e-06	-7.166310e-09	-2.800405e+01	-4.693023e+02
2.920000e-06	-4.021643e-06	-7.288942e-09	-2.849665e+01	-4.772258e+02
2.930000e-06	-4.089568e-06	-7.402674e-09	-2.897796e+01	-4.847669e+02
2.940000e-06	-4.156056e-06	-7.512593e-09	-2.944908e+01	-4.919452e+02
