# Temperatura_=_42.34
# Concentracion g/m^3_=_15000.0
# C_Vs_to_Am_M_A/Vsm_=_65563218390.804596
# pendiente_HvsI_1/m_=_3716.3
# ordenada_HvsI_A/m_=_1297.0
# frecuencia_Hz_=_301602.6736052691

Tiempo_(s)	Campo_(V.s)	Magnetizacion_(V.s)	Campo_(kA/m)	Magnetizacion_(A/m)
0.000000e+00	-5.405024e-06	-8.242256e-09	-3.833829e+01	-5.383743e+02
1.000000e-08	-5.402693e-06	-8.240789e-09	-3.832175e+01	-5.381887e+02
2.000000e-08	-5.398544e-06	-8.235661e-09	-3.829232e+01	-5.379073e+02
3.000000e-08	-5.392773e-06	-8.230780e-09	-3.825139e+01	-5.375291e+02
4.000000e-08	-5.385412e-06	-8.223322e-09	-3.819917e+01	-5.370523e+02
5.000000e-08	-5.376246e-06	-8.211033e-09	-3.813416e+01	-5.364756e+02
6.000000e-08	-5.365008e-06	-8.196913e-09	-3.805445e+01	-5.357988e+02
7.000000e-08	-5.351863e-06	-8.181701e-09	-3.796121e+01	-5.350230e+02
8.000000e-08	-5.336614e-06	-8.173005e-09	-3.785305e+01	-5.341515e+02
9.000000e-08	-5.319096e-06	-8.203243e-09	-3.772879e+01	-5.331891e+02
1.000000e-07	-5.299536e-06	-8.191528e-09	-3.759005e+01	-5.321425e+02
1.100000e-07	-5.278113e-06	-8.138405e-09	-3.743810e+01	-5.310188e+02
1.200000e-07	-5.254947e-06	-8.100812e-09	-3.727377e+01	-5.298253e+02
1.300000e-07	-5.230093e-06	-8.018283e-09	-3.709748e+01	-5.285679e+02
1.400000e-07	-5.203600e-06	-8.031385e-09	-3.690956e+01	-5.272508e+02
1.500000e-07	-5.175608e-06	-8.113697e-09	-3.671102e+01	-5.258749e+02
1.600000e-07	-5.146171e-06	-8.001493e-09	-3.650222e+01	-5.244378e+02
1.700000e-07	-5.115209e-06	-8.001845e-09	-3.628260e+01	-5.229337e+02
1.800000e-07	-5.082210e-06	-8.013922e-09	-3.604854e+01	-5.213536e+02
1.900000e-07	-5.047188e-06	-7.852741e-09	-3.580012e+01	-5.196859e+02
2.000000e-07	-5.010728e-06	-7.898930e-09	-3.554151e+01	-5.179176e+02
2.100000e-07	-4.972540e-06	-7.905849e-09	-3.527064e+01	-5.160359e+02
2.200000e-07	-4.932495e-06	-7.791039e-09	-3.498659e+01	-5.140287e+02
2.300000e-07	-4.890489e-06	-7.825620e-09	-3.468864e+01	-5.118867e+02
2.400000e-07	-4.846522e-06	-7.813900e-09	-3.437679e+01	-5.096036e+02
2.500000e-07	-4.800840e-06	-7.737965e-09	-3.405276e+01	-5.071771e+02
2.600000e-07	-4.753305e-06	-7.698150e-09	-3.371559e+01	-5.046086e+02
2.700000e-07	-4.703718e-06	-7.622959e-09	-3.336386e+01	-5.019033e+02
2.800000e-07	-4.651976e-06	-7.604901e-09	-3.299685e+01	-4.990688e+02
2.900000e-07	-4.598282e-06	-7.568137e-09	-3.261599e+01	-4.961145e+02
3.000000e-07	-4.543009e-06	-7.511005e-09	-3.222394e+01	-4.930501e+02
3.100000e-07	-4.486085e-06	-7.479550e-09	-3.182018e+01	-4.898845e+02
3.200000e-07	-4.427310e-06	-7.427221e-09	-3.140328e+01	-4.866246e+02
3.300000e-07	-4.366926e-06	-7.366436e-09	-3.097497e+01	-4.832745e+02
3.400000e-07	-4.305066e-06	-7.302489e-09	-3.053619e+01	-4.798352e+02
3.500000e-07	-4.241852e-06	-7.278595e-09	-3.008781e+01	-4.763046e+02
3.600000e-07	-4.177166e-06	-7.223855e-09	-2.962899e+01	-4.726778e+02
3.700000e-07	-4.110722e-06	-7.139463e-09	-2.915769e+01	-4.689477e+02
3.800000e-07	-4.042733e-06	-7.096079e-09	-2.867544e+01	-4.651066e+02
3.900000e-07	-3.973383e-06	-7.033624e-09	-2.818354e+01	-4.611463e+02
4.000000e-07	-3.902715e-06	-6.955564e-09	-2.768228e+01	-4.570597e+02
4.100000e-07	-3.830851e-06	-6.888863e-09	-2.717255e+01	-4.528415e+02
4.200000e-07	-3.757521e-06	-6.836500e-09	-2.665241e+01	-4.484885e+02
4.300000e-07	-3.682511e-06	-6.780163e-09	-2.612036e+01	-4.439995e+02
4.400000e-07	-3.605967e-06	-6.702077e-09	-2.557743e+01	-4.393760e+02
4.500000e-07	-3.528034e-06	-6.628609e-09	-2.502464e+01	-4.346206e+02
4.600000e-07	-3.448691e-06	-6.552818e-09	-2.446185e+01	-4.297371e+02
4.700000e-07	-3.367976e-06	-6.467913e-09	-2.388933e+01	-4.247296e+02
4.800000e-07	-3.286110e-06	-6.386466e-09	-2.330865e+01	-4.196013e+02
4.900000e-07	-3.203171e-06	-6.317383e-09	-2.272035e+01	-4.143542e+02
5.000000e-07	-3.119252e-06	-6.246636e-09	-2.212512e+01	-4.089888e+02
5.100000e-07	-3.034408e-06	-6.151033e-09	-2.152331e+01	-4.035033e+02
5.200000e-07	-2.948593e-06	-6.054171e-09	-2.091461e+01	-3.978943e+02
5.300000e-07	-2.861732e-06	-5.964994e-09	-2.029850e+01	-3.921569e+02
5.400000e-07	-2.773927e-06	-5.876356e-09	-1.967569e+01	-3.862850e+02
5.500000e-07	-2.685139e-06	-5.786252e-09	-1.904591e+01	-3.802719e+02
5.600000e-07	-2.595093e-06	-5.690187e-09	-1.840721e+01	-3.741115e+02
5.700000e-07	-2.503928e-06	-5.594934e-09	-1.776057e+01	-3.677979e+02
5.800000e-07	-2.411959e-06	-5.494878e-09	-1.710822e+01	-3.613266e+02
5.900000e-07	-2.319234e-06	-5.394202e-09	-1.645052e+01	-3.546943e+02
6.000000e-07	-2.225681e-06	-5.290765e-09	-1.578694e+01	-3.478987e+02
6.100000e-07	-2.131339e-06	-5.181861e-09	-1.511776e+01	-3.409389e+02
6.200000e-07	-2.036277e-06	-5.072085e-09	-1.444348e+01	-3.338146e+02
6.300000e-07	-1.940518e-06	-4.962114e-09	-1.376426e+01	-3.265258e+02
6.400000e-07	-1.844035e-06	-4.851295e-09	-1.307990e+01	-3.190721e+02
6.500000e-07	-1.746749e-06	-4.734030e-09	-1.238984e+01	-3.114527e+02
6.600000e-07	-1.648619e-06	-4.607378e-09	-1.169379e+01	-3.036658e+02
6.700000e-07	-1.549802e-06	-4.475563e-09	-1.099288e+01	-2.957084e+02
6.800000e-07	-1.450475e-06	-4.350372e-09	-1.028834e+01	-2.875764e+02
6.900000e-07	-1.350723e-06	-4.229576e-09	-9.580790e+00	-2.792645e+02
7.000000e-07	-1.250604e-06	-4.106255e-09	-8.870637e+00	-2.707665e+02
7.100000e-07	-1.150156e-06	-3.973522e-09	-8.158152e+00	-2.620759e+02
7.200000e-07	-1.049350e-06	-3.832115e-09	-7.443129e+00	-2.531856e+02
7.300000e-07	-9.481734e-07	-3.689467e-09	-6.725473e+00	-2.440890e+02
7.400000e-07	-8.466491e-07	-3.546856e-09	-6.005352e+00	-2.347796e+02
7.500000e-07	-7.448107e-07	-3.401133e-09	-5.283004e+00	-2.252517e+02
7.600000e-07	-6.427932e-07	-3.249546e-09	-4.559385e+00	-2.155004e+02
7.700000e-07	-5.405579e-07	-3.093915e-09	-3.834222e+00	-2.055211e+02
7.800000e-07	-4.380910e-07	-2.936615e-09	-3.107415e+00	-1.953103e+02
7.900000e-07	-3.355361e-07	-2.778376e-09	-2.379985e+00	-1.848645e+02
8.000000e-07	-2.328550e-07	-2.614637e-09	-1.651660e+00	-1.741802e+02
8.100000e-07	-1.300485e-07	-2.444299e-09	-9.224450e-01	-1.632538e+02
8.200000e-07	-2.724238e-08	-2.270265e-09	-1.932325e-01	-1.520809e+02
8.300000e-07	7.559254e-08	-2.095435e-09	5.361842e-01	-1.406562e+02
8.400000e-07	1.784757e-07	-1.919189e-09	1.265943e+00	-1.289730e+02
8.500000e-07	2.812699e-07	-1.737312e-09	1.995071e+00	-1.170231e+02
8.600000e-07	3.839286e-07	-1.551139e-09	2.723238e+00	-1.047971e+02
8.700000e-07	4.865129e-07	-1.358653e-09	3.450876e+00	-9.228390e+01
8.800000e-07	5.890326e-07	-1.161259e-09	4.178057e+00	-7.947165e+01
8.900000e-07	6.913912e-07	-9.629934e-10	4.904095e+00	-6.634804e+01
9.000000e-07	7.935005e-07	-7.615155e-10	5.628365e+00	-5.290122e+01
9.100000e-07	8.953644e-07	-5.536475e-10	6.350894e+00	-3.912091e+01
9.200000e-07	9.968936e-07	-3.396623e-10	7.071049e+00	-2.499963e+01
9.300000e-07	1.097955e-06	-1.210430e-10	7.787885e+00	-1.053415e+01
9.400000e-07	1.198577e-06	1.030501e-10	8.501607e+00	4.273033e+00
9.500000e-07	1.298878e-06	3.306717e-10	9.213046e+00	1.941235e+01
9.600000e-07	1.398881e-06	5.633859e-10	9.922381e+00	3.486589e+01
9.700000e-07	1.498481e-06	8.022629e-10	1.062885e+01	5.060661e+01
9.800000e-07	1.597448e-06	1.046217e-09	1.133083e+01	6.659783e+01
9.900000e-07	1.695564e-06	1.293212e-09	1.202678e+01	8.279340e+01
1.000000e-06	1.792841e-06	1.541970e-09	1.271677e+01	9.913847e+01
1.010000e-06	1.889438e-06	1.792598e-09	1.340194e+01	1.155707e+02
1.020000e-06	1.985356e-06	2.043606e-09	1.408229e+01	1.320224e+02
1.030000e-06	2.080452e-06	2.294466e-09	1.475682e+01	1.484226e+02
1.040000e-06	2.174797e-06	2.543903e-09	1.542601e+01	1.646998e+02
1.050000e-06	2.268470e-06	2.788287e-09	1.609044e+01	1.807848e+02
1.060000e-06	2.361345e-06	3.027049e-09	1.674922e+01	1.966131e+02
1.070000e-06	2.453511e-06	3.260389e-09	1.740296e+01	2.121275e+02
1.080000e-06	2.544997e-06	3.490892e-09	1.805188e+01	2.272793e+02
1.090000e-06	2.635518e-06	3.715928e-09	1.869395e+01	2.420298e+02
1.100000e-06	2.724904e-06	3.933547e-09	1.932797e+01	2.563503e+02
1.110000e-06	2.813266e-06	4.142385e-09	1.995473e+01	2.702222e+02
1.120000e-06	2.900622e-06	4.344084e-09	2.057435e+01	2.836352e+02
1.130000e-06	2.986966e-06	4.540579e-09	2.118680e+01	2.965864e+02
1.140000e-06	3.072315e-06	4.731610e-09	2.179218e+01	3.090779e+02
1.150000e-06	3.156725e-06	4.914540e-09	2.239091e+01	3.211154e+02
1.160000e-06	3.240237e-06	5.089988e-09	2.298327e+01	3.327058e+02
1.170000e-06	3.322601e-06	5.260471e-09	2.356749e+01	3.438561e+02
1.180000e-06	3.403699e-06	5.424699e-09	2.414272e+01	3.545724e+02
1.190000e-06	3.483506e-06	5.582021e-09	2.470880e+01	3.648593e+02
1.200000e-06	3.562092e-06	5.731864e-09	2.526622e+01	3.747202e+02
1.210000e-06	3.639498e-06	5.875581e-09	2.581526e+01	3.841577e+02
1.220000e-06	3.715620e-06	6.012884e-09	2.635520e+01	3.931748e+02
1.230000e-06	3.790278e-06	6.144079e-09	2.688476e+01	4.017761e+02
1.240000e-06	3.863315e-06	6.268205e-09	2.740282e+01	4.099685e+02
1.250000e-06	3.934828e-06	6.386208e-09	2.791006e+01	4.177624e+02
1.260000e-06	4.004929e-06	6.496447e-09	2.840729e+01	4.251722e+02
1.270000e-06	4.073719e-06	6.601385e-09	2.889523e+01	4.322159e+02
1.280000e-06	4.141160e-06	6.702573e-09	2.937359e+01	4.389151e+02
1.290000e-06	4.206987e-06	6.798832e-09	2.984051e+01	4.452938e+02
1.300000e-06	4.271107e-06	6.889861e-09	3.029532e+01	4.513768e+02
1.310000e-06	4.333708e-06	6.976397e-09	3.073935e+01	4.571887e+02
1.320000e-06	4.394884e-06	7.060505e-09	3.117327e+01	4.627520e+02
1.330000e-06	4.454682e-06	7.142778e-09	3.159743e+01	4.680859e+02
1.340000e-06	4.512931e-06	7.222321e-09	3.201059e+01	4.732053e+02
1.350000e-06	4.569385e-06	7.297953e-09	3.241103e+01	4.781203e+02
1.360000e-06	4.624118e-06	7.368028e-09	3.279925e+01	4.828364e+02
1.370000e-06	4.677188e-06	7.433175e-09	3.317568e+01	4.873546e+02
1.380000e-06	4.728413e-06	7.496667e-09	3.353902e+01	4.916729e+02
1.390000e-06	4.777587e-06	7.559691e-09	3.388782e+01	4.957870e+02
1.400000e-06	4.824829e-06	7.619189e-09	3.422291e+01	4.996921e+02
1.410000e-06	4.870399e-06	7.673489e-09	3.454614e+01	5.033842e+02
1.420000e-06	4.914481e-06	7.725376e-09	3.485882e+01	5.068607e+02
1.430000e-06	4.956880e-06	7.776322e-09	3.515956e+01	5.101219e+02
1.440000e-06	4.997340e-06	7.823601e-09	3.544655e+01	5.131706e+02
1.450000e-06	5.036010e-06	7.866892e-09	3.572083e+01	5.160126e+02
1.460000e-06	5.073050e-06	7.906598e-09	3.598356e+01	5.186557e+02
1.470000e-06	5.108466e-06	7.941913e-09	3.623477e+01	5.211095e+02
1.480000e-06	5.141985e-06	7.973567e-09	3.647253e+01	5.233838e+02
1.490000e-06	5.173563e-06	8.003090e-09	3.669651e+01	5.254885e+02
1.500000e-06	5.203405e-06	8.029820e-09	3.690819e+01	5.274321e+02
1.510000e-06	5.231605e-06	8.054687e-09	3.710821e+01	5.292216e+02
1.520000e-06	5.257950e-06	8.078574e-09	3.729508e+01	5.308623e+02
1.530000e-06	5.282181e-06	8.100531e-09	3.746695e+01	5.323574e+02
1.540000e-06	5.304467e-06	8.121158e-09	3.762502e+01	5.337091e+02
1.550000e-06	5.325007e-06	8.139935e-09	3.777072e+01	5.349187e+02
1.560000e-06	5.343760e-06	8.154587e-09	3.790373e+01	5.359875e+02
1.570000e-06	5.360538e-06	8.166701e-09	3.802274e+01	5.369170e+02
1.580000e-06	5.375307e-06	8.177857e-09	3.812750e+01	5.377101e+02
1.590000e-06	5.388154e-06	8.187670e-09	3.821862e+01	5.383705e+02
1.600000e-06	5.398856e-06	8.196502e-09	3.829454e+01	5.389035e+02
1.610000e-06	5.407328e-06	8.204087e-09	3.835463e+01	5.393150e+02
1.620000e-06	5.413822e-06	8.210204e-09	3.840069e+01	5.396114e+02
1.630000e-06	5.418508e-06	8.215381e-09	3.843393e+01	5.397991e+02
1.640000e-06	5.421344e-06	8.218466e-09	3.845404e+01	5.398836e+02
1.650000e-06	5.422184e-06	8.219720e-09	3.846000e+01	5.398690e+02
1.660000e-06	5.421127e-06	8.217367e-09	3.845251e+01	5.397581e+02
1.670000e-06	5.418386e-06	8.211339e-09	3.843306e+01	5.395517e+02
1.680000e-06	5.414062e-06	8.207394e-09	3.840239e+01	5.392494e+02
1.690000e-06	5.407877e-06	8.201059e-09	3.835852e+01	5.388499e+02
1.700000e-06	5.399758e-06	8.193803e-09	3.830093e+01	5.383515e+02
1.710000e-06	5.390029e-06	8.188992e-09	3.823192e+01	5.377531e+02
1.720000e-06	5.378665e-06	8.186426e-09	3.815132e+01	5.370546e+02
1.730000e-06	5.365373e-06	8.187269e-09	3.805703e+01	5.362577e+02
1.740000e-06	5.349992e-06	8.121596e-09	3.794794e+01	5.353659e+02
1.750000e-06	5.332301e-06	8.088955e-09	3.782245e+01	5.343847e+02
1.760000e-06	5.311944e-06	8.104558e-09	3.767806e+01	5.333206e+02
1.770000e-06	5.289141e-06	8.102880e-09	3.751632e+01	5.321811e+02
1.780000e-06	5.264869e-06	8.173712e-09	3.734415e+01	5.309731e+02
1.790000e-06	5.239846e-06	8.091331e-09	3.716667e+01	5.297024e+02
1.800000e-06	5.213602e-06	7.974186e-09	3.698051e+01	5.283724e+02
1.810000e-06	5.185218e-06	8.060660e-09	3.677918e+01	5.269834e+02
1.820000e-06	5.154905e-06	7.965236e-09	3.656417e+01	5.255323e+02
1.830000e-06	5.122995e-06	7.937630e-09	3.633783e+01	5.240125e+02
1.840000e-06	5.089081e-06	8.053396e-09	3.609727e+01	5.224144e+02
1.850000e-06	5.053481e-06	7.896473e-09	3.584476e+01	5.207259e+02
1.860000e-06	5.016239e-06	7.884273e-09	3.558060e+01	5.189342e+02
1.870000e-06	4.977020e-06	7.941807e-09	3.530242e+01	5.170262e+02
1.880000e-06	4.936093e-06	7.767524e-09	3.501211e+01	5.149905e+02
1.890000e-06	4.893332e-06	7.789699e-09	3.470881e+01	5.128184e+02
1.900000e-06	4.848915e-06	7.777974e-09	3.439375e+01	5.105044e+02
1.910000e-06	4.802830e-06	7.722489e-09	3.406687e+01	5.080469e+02
1.920000e-06	4.754576e-06	7.762646e-09	3.372460e+01	5.054483e+02
1.930000e-06	4.704588e-06	7.604128e-09	3.337003e+01	5.027142e+02
1.940000e-06	4.653001e-06	7.619086e-09	3.300412e+01	4.998530e+02
1.950000e-06	4.599381e-06	7.603237e-09	3.262379e+01	4.968740e+02
1.960000e-06	4.543754e-06	7.456930e-09	3.222922e+01	4.937869e+02
1.970000e-06	4.486365e-06	7.470493e-09	3.182216e+01	4.906003e+02
1.980000e-06	4.427558e-06	7.418460e-09	3.140504e+01	4.873206e+02
1.990000e-06	4.367325e-06	7.392595e-09	3.097780e+01	4.839511e+02
2.000000e-06	4.305312e-06	7.305743e-09	3.053793e+01	4.804923e+02
2.010000e-06	4.241621e-06	7.231380e-09	3.008617e+01	4.769412e+02
2.020000e-06	4.176447e-06	7.244412e-09	2.962389e+01	4.732926e+02
2.030000e-06	4.109861e-06	7.114465e-09	2.915158e+01	4.695392e+02
2.040000e-06	4.041889e-06	7.088242e-09	2.866946e+01	4.656729e+02
2.050000e-06	3.972423e-06	7.057431e-09	2.817673e+01	4.616858e+02
2.060000e-06	3.901391e-06	6.969894e-09	2.767289e+01	4.575711e+02
2.070000e-06	3.828904e-06	6.896474e-09	2.715874e+01	4.533239e+02
2.080000e-06	3.755130e-06	6.794663e-09	2.663545e+01	4.489415e+02
2.090000e-06	3.680030e-06	6.775308e-09	2.610276e+01	4.444232e+02
2.100000e-06	3.603524e-06	6.695019e-09	2.556010e+01	4.397708e+02
2.110000e-06	3.525382e-06	6.618302e-09	2.500583e+01	4.349874e+02
2.120000e-06	3.445763e-06	6.560368e-09	2.444108e+01	4.300768e+02
2.130000e-06	3.365102e-06	6.476717e-09	2.386895e+01	4.250428e+02
2.140000e-06	3.283302e-06	6.394021e-09	2.328873e+01	4.198886e+02
2.150000e-06	3.200365e-06	6.291637e-09	2.270046e+01	4.146160e+02
2.160000e-06	3.116445e-06	6.229920e-09	2.210520e+01	4.092247e+02
2.170000e-06	3.031430e-06	6.148333e-09	2.150218e+01	4.037128e+02
2.180000e-06	2.945035e-06	6.068023e-09	2.088938e+01	3.980765e+02
2.190000e-06	2.857372e-06	5.982287e-09	2.026758e+01	3.923105e+02
2.200000e-06	2.768765e-06	5.889202e-09	1.963908e+01	3.864086e+02
2.210000e-06	2.679252e-06	5.801560e-09	1.900416e+01	3.803642e+02
2.220000e-06	2.588815e-06	5.695963e-09	1.836268e+01	3.741711e+02
2.230000e-06	2.497468e-06	5.602627e-09	1.771475e+01	3.678238e+02
2.240000e-06	2.405351e-06	5.504163e-09	1.706135e+01	3.613180e+02
2.250000e-06	2.312460e-06	5.409509e-09	1.640247e+01	3.546505e+02
2.260000e-06	2.218675e-06	5.305673e-09	1.573724e+01	3.478195e+02
2.270000e-06	2.123885e-06	5.194866e-09	1.506489e+01	3.408242e+02
2.280000e-06	2.028082e-06	5.085374e-09	1.438535e+01	3.336643e+02
2.290000e-06	1.931561e-06	4.973820e-09	1.370072e+01	3.263399e+02
2.300000e-06	1.834525e-06	4.860630e-09	1.301244e+01	3.188505e+02
2.310000e-06	1.737040e-06	4.747823e-09	1.232097e+01	3.111951e+02
2.320000e-06	1.638962e-06	4.637730e-09	1.162529e+01	3.033717e+02
2.330000e-06	1.540237e-06	4.514293e-09	1.092503e+01	2.953770e+02
2.340000e-06	1.441008e-06	4.384496e-09	1.022119e+01	2.872066e+02
2.350000e-06	1.341366e-06	4.251034e-09	9.514421e+00	2.788551e+02
2.360000e-06	1.241405e-06	4.121563e-09	8.805388e+00	2.703162e+02
2.370000e-06	1.141159e-06	3.992573e-09	8.094339e+00	2.615830e+02
2.380000e-06	1.040632e-06	3.859044e-09	7.381292e+00	2.526488e+02
2.390000e-06	9.396956e-07	3.725127e-09	6.665339e+00	2.435068e+02
2.400000e-06	8.383247e-07	3.586036e-09	5.946307e+00	2.341508e+02
2.410000e-06	7.366245e-07	3.439055e-09	5.224938e+00	2.245752e+02
2.420000e-06	6.346275e-07	3.286051e-09	4.501466e+00	2.147750e+02
2.430000e-06	5.323001e-07	3.134481e-09	3.775649e+00	2.047462e+02
2.440000e-06	4.296695e-07	2.983168e-09	3.047681e+00	1.944850e+02
2.450000e-06	3.268834e-07	2.827244e-09	2.318611e+00	1.839881e+02
2.460000e-06	2.239599e-07	2.663215e-09	1.588566e+00	1.732519e+02
2.470000e-06	1.208124e-07	2.497121e-09	8.569322e-01	1.622728e+02
2.480000e-06	1.754350e-08	2.326105e-09	1.244375e-01	1.510462e+02
2.490000e-06	-8.568700e-08	2.148291e-09	-6.077850e-01	1.395664e+02
2.500000e-06	-1.888623e-07	1.970023e-09	-1.339616e+00	1.278265e+02
2.510000e-06	-2.919053e-07	1.791088e-09	-2.070508e+00	1.158180e+02
2.520000e-06	-3.948173e-07	1.609892e-09	-2.800472e+00	1.035311e+02
2.530000e-06	-4.976007e-07	1.420304e-09	-3.529523e+00	9.095460e+01
2.540000e-06	-6.001366e-07	1.223032e-09	-4.256818e+00	7.807638e+01
2.550000e-06	-7.023448e-07	1.019066e-09	-4.981790e+00	6.488419e+01
2.560000e-06	-8.042254e-07	8.069319e-10	-5.704438e+00	5.136641e+01
2.570000e-06	-9.057789e-07	5.900885e-10	-6.424765e+00	3.751325e+01
2.580000e-06	-1.006888e-06	3.715489e-10	-7.141937e+00	2.331803e+01
2.590000e-06	-1.107600e-06	1.506845e-10	-7.856297e+00	8.778611e+00
2.600000e-06	-1.208003e-06	-7.538750e-11	-8.568469e+00	-6.101104e+00
2.610000e-06	-1.308019e-06	-3.076923e-10	-9.277884e+00	-2.130985e+01
2.620000e-06	-1.407491e-06	-5.465752e-10	-9.983447e+00	-3.682782e+01
2.630000e-06	-1.506410e-06	-7.891138e-10	-1.068509e+01	-5.262592e+01
2.640000e-06	-1.604841e-06	-1.033482e-09	-1.138327e+01	-6.866541e+01
2.650000e-06	-1.702734e-06	-1.280638e-09	-1.207763e+01	-8.489820e+01
2.660000e-06	-1.799982e-06	-1.531159e-09	-1.276742e+01	-1.012677e+02
2.670000e-06	-1.896637e-06	-1.784052e-09	-1.345300e+01	-1.177103e+02
2.680000e-06	-1.992810e-06	-2.036221e-09	-1.413517e+01	-1.341572e+02
2.690000e-06	-2.088334e-06	-2.285188e-09	-1.481273e+01	-1.505373e+02
2.700000e-06	-2.182936e-06	-2.530890e-09	-1.548374e+01	-1.667793e+02
2.710000e-06	-2.276559e-06	-2.774012e-09	-1.614782e+01	-1.828148e+02
2.720000e-06	-2.369290e-06	-3.014476e-09	-1.680557e+01	-1.985807e+02
2.730000e-06	-2.461116e-06	-3.250962e-09	-1.745690e+01	-2.140215e+02
2.740000e-06	-2.552066e-06	-3.482368e-09	-1.810202e+01	-2.290905e+02
2.750000e-06	-2.642100e-06	-3.709232e-09	-1.874063e+01	-2.437512e+02
2.760000e-06	-2.731216e-06	-3.932784e-09	-1.937274e+01	-2.579771e+02
2.770000e-06	-2.819609e-06	-4.150119e-09	-1.999972e+01	-2.717515e+02
2.780000e-06	-2.907164e-06	-4.355350e-09	-2.062075e+01	-2.850659e+02
2.790000e-06	-2.993531e-06	-4.548703e-09	-2.123336e+01	-2.979185e+02
2.800000e-06	-3.078659e-06	-4.735979e-09	-2.183719e+01	-3.103125e+02
2.810000e-06	-3.162700e-06	-4.917864e-09	-2.243329e+01	-3.222539e+02
2.820000e-06	-3.245725e-06	-5.092651e-09	-2.302220e+01	-3.337497e+02
2.830000e-06	-3.327674e-06	-5.261744e-09	-2.360347e+01	-3.448069e+02
2.840000e-06	-3.408561e-06	-5.423868e-09	-2.417721e+01	-3.554311e+02
2.850000e-06	-3.488314e-06	-5.578211e-09	-2.474290e+01	-3.656267e+02
2.860000e-06	-3.566670e-06	-5.725700e-09	-2.529869e+01	-3.753969e+02
2.870000e-06	-3.643455e-06	-5.868333e-09	-2.584333e+01	-3.847443e+02
2.880000e-06	-3.718730e-06	-6.006293e-09	-2.637726e+01	-3.936722e+02
2.890000e-06	-3.792609e-06	-6.137433e-09	-2.690129e+01	-4.021854e+02
2.900000e-06	-3.865222e-06	-6.264480e-09	-2.741634e+01	-4.102917e+02
2.910000e-06	-3.936490e-06	-6.387393e-09	-2.792185e+01	-4.180023e+02
2.920000e-06	-4.006164e-06	-6.500687e-09	-2.841605e+01	-4.253322e+02
2.930000e-06	-4.074331e-06	-6.605436e-09	-2.889957e+01	-4.323005e+02
2.940000e-06	-4.141104e-06	-6.705984e-09	-2.937319e+01	-4.389293e+02
