# Temperatura_=_45.9
# Concentracion g/m^3_=_15000.0
# C_Vs_to_Am_M_A/Vsm_=_65563218390.804596
# pendiente_HvsI_1/m_=_3716.3
# ordenada_HvsI_A/m_=_1297.0
# frecuencia_Hz_=_301601.3877593678

Tiempo_(s)	Campo_(V.s)	Magnetizacion_(V.s)	Campo_(kA/m)	Magnetizacion_(A/m)
0.000000e+00	-5.432080e-06	-8.320100e-09	-3.833637e+01	-5.436029e+02
1.000000e-08	-5.429552e-06	-8.315363e-09	-3.831853e+01	-5.433868e+02
2.000000e-08	-5.425235e-06	-8.309464e-09	-3.828806e+01	-5.430610e+02
3.000000e-08	-5.419251e-06	-8.305744e-09	-3.824583e+01	-5.426221e+02
4.000000e-08	-5.411667e-06	-8.298953e-09	-3.819231e+01	-5.420681e+02
5.000000e-08	-5.402210e-06	-8.286811e-09	-3.812557e+01	-5.413995e+02
6.000000e-08	-5.390682e-06	-8.271460e-09	-3.804421e+01	-5.406201e+02
7.000000e-08	-5.377262e-06	-8.248539e-09	-3.794950e+01	-5.397372e+02
8.000000e-08	-5.361732e-06	-8.257717e-09	-3.783989e+01	-5.387617e+02
9.000000e-08	-5.343934e-06	-8.285204e-09	-3.771429e+01	-5.377071e+02
1.000000e-07	-5.324053e-06	-8.246027e-09	-3.757398e+01	-5.365883e+02
1.100000e-07	-5.302256e-06	-8.206048e-09	-3.742015e+01	-5.354200e+02
1.200000e-07	-5.278745e-06	-8.162924e-09	-3.725422e+01	-5.342146e+02
1.300000e-07	-5.253627e-06	-8.064355e-09	-3.707696e+01	-5.329812e+02
1.400000e-07	-5.226898e-06	-8.147817e-09	-3.688832e+01	-5.317235e+02
1.500000e-07	-5.198589e-06	-8.175801e-09	-3.668853e+01	-5.304392e+02
1.600000e-07	-5.168774e-06	-8.028884e-09	-3.647812e+01	-5.291199e+02
1.700000e-07	-5.137375e-06	-8.099079e-09	-3.625652e+01	-5.277514e+02
1.800000e-07	-5.103942e-06	-8.039696e-09	-3.602057e+01	-5.263149e+02
1.900000e-07	-5.068626e-06	-7.922330e-09	-3.577133e+01	-5.247892e+02
2.000000e-07	-5.031772e-06	-8.044677e-09	-3.551123e+01	-5.231518e+02
2.100000e-07	-4.993132e-06	-7.972764e-09	-3.523854e+01	-5.213824e+02
2.200000e-07	-4.952591e-06	-7.867966e-09	-3.495242e+01	-5.194637e+02
2.300000e-07	-4.910105e-06	-7.906214e-09	-3.465258e+01	-5.173838e+02
2.400000e-07	-4.865701e-06	-7.846303e-09	-3.433921e+01	-5.151367e+02
2.500000e-07	-4.819526e-06	-7.816587e-09	-3.401333e+01	-5.127230e+02
2.600000e-07	-4.771374e-06	-7.778519e-09	-3.367350e+01	-5.101488e+02
2.700000e-07	-4.721040e-06	-7.695491e-09	-3.331827e+01	-5.074252e+02
2.800000e-07	-4.668721e-06	-7.659855e-09	-3.294904e+01	-5.045661e+02
2.900000e-07	-4.614652e-06	-7.617309e-09	-3.256745e+01	-5.015866e+02
3.000000e-07	-4.558956e-06	-7.585724e-09	-3.217438e+01	-4.985008e+02
3.100000e-07	-4.501487e-06	-7.559694e-09	-3.176880e+01	-4.953203e+02
3.200000e-07	-4.442226e-06	-7.520166e-09	-3.135057e+01	-4.920529e+02
3.300000e-07	-4.381415e-06	-7.435577e-09	-3.092140e+01	-4.887016e+02
3.400000e-07	-4.319165e-06	-7.365431e-09	-3.048208e+01	-4.852649e+02
3.500000e-07	-4.255507e-06	-7.356551e-09	-3.003282e+01	-4.817371e+02
3.600000e-07	-4.190286e-06	-7.290803e-09	-2.957253e+01	-4.781095e+02
3.700000e-07	-4.123377e-06	-7.214004e-09	-2.910033e+01	-4.743718e+02
3.800000e-07	-4.054917e-06	-7.169951e-09	-2.861718e+01	-4.705134e+02
3.900000e-07	-3.985103e-06	-7.102630e-09	-2.812447e+01	-4.665250e+02
4.000000e-07	-3.914064e-06	-7.033918e-09	-2.762312e+01	-4.623993e+02
4.100000e-07	-3.841683e-06	-6.970066e-09	-2.711230e+01	-4.581324e+02
4.200000e-07	-3.767742e-06	-6.920464e-09	-2.659046e+01	-4.537230e+02
4.300000e-07	-3.692207e-06	-6.844996e-09	-2.605739e+01	-4.491730e+02
4.400000e-07	-3.615169e-06	-6.758686e-09	-2.551370e+01	-4.444861e+02
4.500000e-07	-3.536663e-06	-6.690786e-09	-2.495965e+01	-4.396673e+02
4.600000e-07	-3.456758e-06	-6.630879e-09	-2.439573e+01	-4.347213e+02
4.700000e-07	-3.375636e-06	-6.556071e-09	-2.382322e+01	-4.296521e+02
4.800000e-07	-3.293361e-06	-6.460500e-09	-2.324257e+01	-4.244614e+02
4.900000e-07	-3.209988e-06	-6.386225e-09	-2.265418e+01	-4.191490e+02
5.000000e-07	-3.125594e-06	-6.310666e-09	-2.205857e+01	-4.137121e+02
5.100000e-07	-3.040178e-06	-6.218946e-09	-2.145576e+01	-4.081457e+02
5.200000e-07	-2.953756e-06	-6.128020e-09	-2.084584e+01	-4.024436e+02
5.300000e-07	-2.866351e-06	-6.037464e-09	-2.022899e+01	-3.965986e+02
5.400000e-07	-2.777926e-06	-5.937897e-09	-1.960494e+01	-3.906041e+02
5.500000e-07	-2.688404e-06	-5.837752e-09	-1.897315e+01	-3.844542e+02
5.600000e-07	-2.597815e-06	-5.747259e-09	-1.833382e+01	-3.781449e+02
5.700000e-07	-2.506236e-06	-5.657859e-09	-1.768752e+01	-3.716739e+02
5.800000e-07	-2.413771e-06	-5.558640e-09	-1.703495e+01	-3.650408e+02
5.900000e-07	-2.320513e-06	-5.453538e-09	-1.637679e+01	-3.582470e+02
6.000000e-07	-2.226444e-06	-5.349775e-09	-1.571291e+01	-3.512946e+02
6.100000e-07	-2.131635e-06	-5.241812e-09	-1.504380e+01	-3.441859e+02
6.200000e-07	-2.036153e-06	-5.128415e-09	-1.436995e+01	-3.369227e+02
6.300000e-07	-1.939834e-06	-5.013671e-09	-1.369019e+01	-3.295054e+02
6.400000e-07	-1.842526e-06	-4.898120e-09	-1.300345e+01	-3.219327e+02
6.500000e-07	-1.744422e-06	-4.777207e-09	-1.231108e+01	-3.142012e+02
6.600000e-07	-1.645732e-06	-4.652531e-09	-1.161459e+01	-3.063053e+02
6.700000e-07	-1.546470e-06	-4.528124e-09	-1.091406e+01	-2.982380e+02
6.800000e-07	-1.446709e-06	-4.403958e-09	-1.021001e+01	-2.899910e+02
6.900000e-07	-1.346467e-06	-4.276926e-09	-9.502559e+00	-2.815553e+02
7.000000e-07	-1.245794e-06	-4.146819e-09	-8.792068e+00	-2.729223e+02
7.100000e-07	-1.144759e-06	-4.012198e-09	-8.079024e+00	-2.640839e+02
7.200000e-07	-1.043375e-06	-3.869360e-09	-7.363515e+00	-2.550333e+02
7.300000e-07	-9.416399e-07	-3.724488e-09	-6.645531e+00	-2.457650e+02
7.400000e-07	-8.395174e-07	-3.577431e-09	-5.924811e+00	-2.362751e+02
7.500000e-07	-7.371233e-07	-3.426809e-09	-5.202175e+00	-2.265606e+02
7.600000e-07	-6.345138e-07	-3.274023e-09	-4.478019e+00	-2.166197e+02
7.700000e-07	-5.317027e-07	-3.119799e-09	-3.752440e+00	-2.064508e+02
7.800000e-07	-4.287750e-07	-2.964719e-09	-3.026038e+00	-1.960520e+02
7.900000e-07	-3.257253e-07	-2.803957e-09	-2.298774e+00	-1.854211e+02
8.000000e-07	-2.226069e-07	-2.635843e-09	-1.571026e+00	-1.745547e+02
8.100000e-07	-1.194326e-07	-2.462700e-09	-8.428835e-01	-1.634481e+02
8.200000e-07	-1.620944e-08	-2.286194e-09	-1.143965e-01	-1.520953e+02
8.300000e-07	8.702024e-08	-2.106871e-09	6.141367e-01	-1.404888e+02
8.400000e-07	1.902535e-07	-1.924916e-09	1.342695e+00	-1.286197e+02
8.500000e-07	2.934711e-07	-1.738712e-09	2.071143e+00	-1.164780e+02
8.600000e-07	3.966366e-07	-1.549595e-09	2.799224e+00	-1.040527e+02
8.700000e-07	4.997123e-07	-1.356343e-09	3.526671e+00	-9.133215e+01
8.800000e-07	6.026742e-07	-1.158555e-09	4.253314e+00	-7.830466e+01
8.900000e-07	7.054787e-07	-9.569428e-10	4.978846e+00	-6.495870e+01
9.000000e-07	8.080842e-07	-7.502782e-10	5.702975e+00	-5.128374e+01
9.100000e-07	9.104015e-07	-5.394084e-10	6.425069e+00	-3.727105e+01
9.200000e-07	1.012392e-06	-3.229094e-10	7.144859e+00	-2.291476e+01
9.300000e-07	1.114008e-06	-1.000170e-10	7.862000e+00	-8.212999e+00
9.400000e-07	1.215209e-06	1.298460e-10	8.576218e+00	6.830731e+00
9.500000e-07	1.316040e-06	3.632988e-10	9.287821e+00	2.220620e+01
9.600000e-07	1.416429e-06	5.997431e-10	9.996309e+00	3.789515e+01
9.700000e-07	1.516295e-06	8.413643e-10	1.070110e+01	5.387029e+01
9.800000e-07	1.615636e-06	1.088322e-09	1.140219e+01	7.009459e+01
9.900000e-07	1.714404e-06	1.339344e-09	1.209924e+01	8.652117e+01
1.000000e-06	1.812456e-06	1.592211e-09	1.279123e+01	1.030938e+02
1.010000e-06	1.909660e-06	1.846482e-09	1.347724e+01	1.197483e+02
1.020000e-06	2.005931e-06	2.101582e-09	1.415666e+01	1.364139e+02
1.030000e-06	2.101356e-06	2.355249e-09	1.483011e+01	1.530165e+02
1.040000e-06	2.196124e-06	2.604327e-09	1.549893e+01	1.694808e+02
1.050000e-06	2.290206e-06	2.847651e-09	1.616290e+01	1.857340e+02
1.060000e-06	2.383498e-06	3.086008e-09	1.682130e+01	2.017084e+02
1.070000e-06	2.475999e-06	3.320911e-09	1.747412e+01	2.173442e+02
1.080000e-06	2.567773e-06	3.554499e-09	1.812180e+01	2.325917e+02
1.090000e-06	2.658742e-06	3.782287e-09	1.876381e+01	2.474121e+02
1.100000e-06	2.748653e-06	4.001168e-09	1.939835e+01	2.617787e+02
1.110000e-06	2.837306e-06	4.210576e-09	2.002401e+01	2.756757e+02
1.120000e-06	2.924847e-06	4.411356e-09	2.064182e+01	2.890971e+02
1.130000e-06	3.011458e-06	4.607810e-09	2.125307e+01	3.020448e+02
1.140000e-06	3.097109e-06	4.798257e-09	2.185754e+01	3.145261e+02
1.150000e-06	3.181782e-06	4.979794e-09	2.245511e+01	3.265516e+02
1.160000e-06	3.265526e-06	5.153216e-09	2.304613e+01	3.381324e+02
1.170000e-06	3.348214e-06	5.322731e-09	2.362969e+01	3.492786e+02
1.180000e-06	3.429603e-06	5.488215e-09	2.420409e+01	3.599982e+02
1.190000e-06	3.509700e-06	5.647540e-09	2.476937e+01	3.702964e+02
1.200000e-06	3.588542e-06	5.798971e-09	2.532578e+01	3.801760e+02
1.210000e-06	3.666139e-06	5.943728e-09	2.587341e+01	3.896383e+02
1.220000e-06	3.742487e-06	6.080032e-09	2.641224e+01	3.986842e+02
1.230000e-06	3.817412e-06	6.209484e-09	2.694101e+01	4.073161e+02
1.240000e-06	3.890670e-06	6.334613e-09	2.745802e+01	4.155389e+02
1.250000e-06	3.962350e-06	6.452869e-09	2.796390e+01	4.233616e+02
1.260000e-06	4.032647e-06	6.563348e-09	2.846001e+01	4.307975e+02
1.270000e-06	4.101559e-06	6.667264e-09	2.894635e+01	4.378646e+02
1.280000e-06	4.169154e-06	6.767627e-09	2.942339e+01	4.445848e+02
1.290000e-06	4.235181e-06	6.863529e-09	2.988937e+01	4.509828e+02
1.300000e-06	4.299427e-06	6.955335e-09	3.034278e+01	4.570843e+02
1.310000e-06	4.362138e-06	7.043476e-09	3.078536e+01	4.629148e+02
1.320000e-06	4.423458e-06	7.129408e-09	3.121812e+01	4.684972e+02
1.330000e-06	4.483421e-06	7.212259e-09	3.164130e+01	4.738506e+02
1.340000e-06	4.541773e-06	7.291756e-09	3.205312e+01	4.789895e+02
1.350000e-06	4.598280e-06	7.369048e-09	3.245191e+01	4.839230e+02
1.360000e-06	4.653103e-06	7.440369e-09	3.283881e+01	4.886551e+02
1.370000e-06	4.706256e-06	7.506660e-09	3.321394e+01	4.931855e+02
1.380000e-06	4.757499e-06	7.570169e-09	3.357558e+01	4.975110e+02
1.390000e-06	4.806682e-06	7.631750e-09	3.392269e+01	5.016265e+02
1.400000e-06	4.853983e-06	7.691316e-09	3.425650e+01	5.055270e+02
1.410000e-06	4.899640e-06	7.746927e-09	3.457872e+01	5.092086e+02
1.420000e-06	4.943755e-06	7.799900e-09	3.489006e+01	5.126699e+02
1.430000e-06	4.986139e-06	7.850821e-09	3.518918e+01	5.159123e+02
1.440000e-06	5.026583e-06	7.898387e-09	3.547461e+01	5.189402e+02
1.450000e-06	5.065256e-06	7.941605e-09	3.574755e+01	5.217609e+02
1.460000e-06	5.102290e-06	7.981202e-09	3.600891e+01	5.243834e+02
1.470000e-06	5.137700e-06	8.017406e-09	3.625881e+01	5.268176e+02
1.480000e-06	5.171276e-06	8.048187e-09	3.649577e+01	5.290737e+02
1.490000e-06	5.202907e-06	8.075059e-09	3.671901e+01	5.311607e+02
1.500000e-06	5.232745e-06	8.100075e-09	3.692958e+01	5.330861e+02
1.510000e-06	5.260891e-06	8.125066e-09	3.712822e+01	5.348556e+02
1.520000e-06	5.287145e-06	8.150077e-09	3.731351e+01	5.364732e+02
1.530000e-06	5.311288e-06	8.173050e-09	3.748389e+01	5.379414e+02
1.540000e-06	5.333503e-06	8.192467e-09	3.764067e+01	5.392619e+02
1.550000e-06	5.353986e-06	8.209264e-09	3.778523e+01	5.404366e+02
1.560000e-06	5.372624e-06	8.223923e-09	3.791676e+01	5.414678e+02
1.570000e-06	5.389249e-06	8.237973e-09	3.803409e+01	5.423590e+02
1.580000e-06	5.403893e-06	8.250864e-09	3.813744e+01	5.431151e+02
1.590000e-06	5.416591e-06	8.259736e-09	3.822706e+01	5.437420e+02
1.600000e-06	5.427100e-06	8.265654e-09	3.830122e+01	5.442465e+02
1.610000e-06	5.435365e-06	8.271394e-09	3.835956e+01	5.446355e+02
1.620000e-06	5.441713e-06	8.277604e-09	3.840435e+01	5.449149e+02
1.630000e-06	5.446285e-06	8.282845e-09	3.843662e+01	5.450894e+02
1.640000e-06	5.448951e-06	8.286531e-09	3.845543e+01	5.451618e+02
1.650000e-06	5.449598e-06	8.289193e-09	3.846000e+01	5.451322e+02
1.660000e-06	5.448361e-06	8.286009e-09	3.845127e+01	5.449992e+02
1.670000e-06	5.445430e-06	8.281026e-09	3.843058e+01	5.447596e+02
1.680000e-06	5.440850e-06	8.274686e-09	3.839826e+01	5.444095e+02
1.690000e-06	5.434360e-06	8.265632e-09	3.835246e+01	5.439457e+02
1.700000e-06	5.426035e-06	8.257244e-09	3.829371e+01	5.433667e+02
1.710000e-06	5.416125e-06	8.249094e-09	3.822377e+01	5.426735e+02
1.720000e-06	5.404481e-06	8.250151e-09	3.814159e+01	5.418708e+02
1.730000e-06	5.390886e-06	8.229704e-09	3.804564e+01	5.409667e+02
1.740000e-06	5.375202e-06	8.154940e-09	3.793496e+01	5.399728e+02
1.750000e-06	5.357182e-06	8.150541e-09	3.780778e+01	5.389028e+02
1.760000e-06	5.336484e-06	8.150052e-09	3.766171e+01	5.377719e+02
1.770000e-06	5.313393e-06	8.167728e-09	3.749875e+01	5.365943e+02
1.780000e-06	5.288942e-06	8.235650e-09	3.732619e+01	5.353820e+02
1.790000e-06	5.263761e-06	8.080897e-09	3.714847e+01	5.341429e+02
1.800000e-06	5.237208e-06	8.065388e-09	3.696108e+01	5.328795e+02
1.810000e-06	5.208416e-06	8.138458e-09	3.675788e+01	5.315883e+02
1.820000e-06	5.177673e-06	7.993713e-09	3.654092e+01	5.302595e+02
1.830000e-06	5.145278e-06	8.094743e-09	3.631229e+01	5.288778e+02
1.840000e-06	5.110986e-06	8.119309e-09	3.607028e+01	5.274237e+02
1.850000e-06	5.075072e-06	7.927029e-09	3.581682e+01	5.258755e+02
1.860000e-06	5.037420e-06	8.036094e-09	3.555110e+01	5.242112e+02
1.870000e-06	4.997874e-06	8.006275e-09	3.527201e+01	5.224107e+02
1.880000e-06	4.956647e-06	7.891183e-09	3.498105e+01	5.204580e+02
1.890000e-06	4.913581e-06	7.959905e-09	3.467712e+01	5.183422e+02
1.900000e-06	4.868811e-06	7.848296e-09	3.436115e+01	5.160588e+02
1.910000e-06	4.822213e-06	7.856796e-09	3.403229e+01	5.136096e+02
1.920000e-06	4.773576e-06	7.835737e-09	3.368904e+01	5.110020e+02
1.930000e-06	4.723270e-06	7.712512e-09	3.333401e+01	5.082478e+02
1.940000e-06	4.671174e-06	7.781100e-09	3.296635e+01	5.053613e+02
1.950000e-06	4.617019e-06	7.683144e-09	3.258415e+01	5.023575e+02
1.960000e-06	4.560962e-06	7.581010e-09	3.218854e+01	4.992502e+02
1.970000e-06	4.503177e-06	7.556857e-09	3.178073e+01	4.960503e+02
1.980000e-06	4.443945e-06	7.529141e-09	3.136271e+01	4.927645e+02
1.990000e-06	4.383149e-06	7.521481e-09	3.093365e+01	4.893948e+02
2.000000e-06	4.320560e-06	7.387628e-09	3.049192e+01	4.859388e+02
2.010000e-06	4.256416e-06	7.379404e-09	3.003924e+01	4.823901e+02
2.020000e-06	4.190803e-06	7.333905e-09	2.957618e+01	4.787395e+02
2.030000e-06	4.123701e-06	7.207762e-09	2.910261e+01	4.749765e+02
2.040000e-06	4.055041e-06	7.200777e-09	2.861805e+01	4.710906e+02
2.050000e-06	3.984798e-06	7.151746e-09	2.812232e+01	4.670729e+02
2.060000e-06	3.913144e-06	7.089614e-09	2.761663e+01	4.629169e+02
2.070000e-06	3.840214e-06	6.975852e-09	2.710194e+01	4.586191e+02
2.080000e-06	3.766003e-06	6.913743e-09	2.657820e+01	4.541790e+02
2.090000e-06	3.690343e-06	6.895164e-09	2.604423e+01	4.495989e+02
2.100000e-06	3.613061e-06	6.800620e-09	2.549882e+01	4.448830e+02
2.110000e-06	3.534221e-06	6.714403e-09	2.494242e+01	4.400362e+02
2.120000e-06	3.454170e-06	6.636911e-09	2.437746e+01	4.350632e+02
2.130000e-06	3.373032e-06	6.575961e-09	2.380484e+01	4.299675e+02
2.140000e-06	3.290674e-06	6.476282e-09	2.322361e+01	4.247506e+02
2.150000e-06	3.207231e-06	6.396179e-09	2.263472e+01	4.194115e+02
2.160000e-06	3.122766e-06	6.335703e-09	2.203862e+01	4.139469e+02
2.170000e-06	3.037015e-06	6.238377e-09	2.143343e+01	4.083517e+02
2.180000e-06	2.949946e-06	6.145929e-09	2.081895e+01	4.026192e+02
2.190000e-06	2.861794e-06	6.061171e-09	2.019683e+01	3.967424e+02
2.200000e-06	2.772696e-06	5.989224e-09	1.956803e+01	3.907147e+02
2.210000e-06	2.682648e-06	5.888562e-09	1.893252e+01	3.845306e+02
2.220000e-06	2.591677e-06	5.774435e-09	1.829051e+01	3.781864e+02
2.230000e-06	2.499934e-06	5.671016e-09	1.764304e+01	3.716802e+02
2.240000e-06	2.407352e-06	5.570781e-09	1.698965e+01	3.650123e+02
2.250000e-06	2.313767e-06	5.469836e-09	1.632918e+01	3.581840e+02
2.260000e-06	2.219246e-06	5.365405e-09	1.566211e+01	3.511975e+02
2.270000e-06	2.123839e-06	5.258841e-09	1.498879e+01	3.440553e+02
2.280000e-06	2.027587e-06	5.145088e-09	1.430950e+01	3.367587e+02
2.290000e-06	1.930643e-06	5.032271e-09	1.362532e+01	3.293080e+02
2.300000e-06	1.833144e-06	4.920978e-09	1.293724e+01	3.217012e+02
2.310000e-06	1.735118e-06	4.808891e-09	1.224543e+01	3.139346e+02
2.320000e-06	1.636483e-06	4.684159e-09	1.154932e+01	3.060024e+02
2.330000e-06	1.537306e-06	4.552861e-09	1.084939e+01	2.978969e+02
2.340000e-06	1.437748e-06	4.424718e-09	1.014676e+01	2.896099e+02
2.350000e-06	1.337834e-06	4.296129e-09	9.441635e+00	2.811323e+02
2.360000e-06	1.237546e-06	4.168396e-09	8.733860e+00	2.724556e+02
2.370000e-06	1.136839e-06	4.036161e-09	8.023132e+00	2.635719e+02
2.380000e-06	1.035661e-06	3.895257e-09	7.309075e+00	2.544747e+02
2.390000e-06	9.339675e-07	3.753432e-09	6.591384e+00	2.451589e+02
2.400000e-06	8.318017e-07	3.613482e-09	5.870358e+00	2.356207e+02
2.410000e-06	7.292567e-07	3.469054e-09	5.146657e+00	2.258576e+02
2.420000e-06	6.264251e-07	3.315512e-09	4.420933e+00	2.158676e+02
2.430000e-06	5.234340e-07	3.156025e-09	3.694084e+00	2.056492e+02
2.440000e-06	4.203024e-07	2.997496e-09	2.966243e+00	1.952006e+02
2.450000e-06	3.170321e-07	2.837142e-09	2.237423e+00	1.845192e+02
2.460000e-06	2.135883e-07	2.673545e-09	1.507378e+00	1.736014e+02
2.470000e-06	1.099258e-07	2.508968e-09	7.757905e-01	1.624423e+02
2.480000e-06	6.213324e-09	2.335171e-09	4.384992e-02	1.510354e+02
2.490000e-06	-9.746295e-08	2.152183e-09	-6.878352e-01	1.393731e+02
2.500000e-06	-2.011312e-07	1.969650e-09	-1.419464e+00	1.274461e+02
2.510000e-06	-3.047213e-07	1.788266e-09	-2.150541e+00	1.152442e+02
2.520000e-06	-4.082207e-07	1.602423e-09	-2.880977e+00	1.027563e+02
2.530000e-06	-5.116211e-07	1.407588e-09	-3.610716e+00	8.997067e+01
2.540000e-06	-6.148166e-07	1.206885e-09	-4.339008e+00	7.687554e+01
2.550000e-06	-7.177418e-07	1.000971e-09	-5.065392e+00	6.345958e+01
2.560000e-06	-8.203845e-07	7.856644e-10	-5.789783e+00	4.971256e+01
2.570000e-06	-9.226591e-07	5.658648e-10	-6.511576e+00	3.562628e+01
2.580000e-06	-1.024453e-06	3.447127e-10	-7.229977e+00	2.119561e+01
2.590000e-06	-1.125751e-06	1.192563e-10	-7.944879e+00	6.419725e+00
2.600000e-06	-1.226490e-06	-1.114934e-10	-8.655833e+00	-8.696548e+00
2.610000e-06	-1.326644e-06	-3.462639e-10	-9.362659e+00	-2.414136e+01
2.620000e-06	-1.426336e-06	-5.861104e-10	-1.006623e+01	-3.989461e+01
2.630000e-06	-1.525624e-06	-8.318106e-10	-1.076694e+01	-5.592693e+01
2.640000e-06	-1.624422e-06	-1.081287e-09	-1.146420e+01	-7.219920e+01
2.650000e-06	-1.722654e-06	-1.334211e-09	-1.215746e+01	-8.866246e+01
2.660000e-06	-1.820282e-06	-1.588694e-09	-1.284646e+01	-1.052586e+02
2.670000e-06	-1.917287e-06	-1.843729e-09	-1.353106e+01	-1.219219e+02
2.680000e-06	-2.013695e-06	-2.096775e-09	-1.421145e+01	-1.385807e+02
2.690000e-06	-2.109530e-06	-2.348723e-09	-1.488780e+01	-1.551603e+02
2.700000e-06	-2.204678e-06	-2.599232e-09	-1.555930e+01	-1.715858e+02
2.710000e-06	-2.298901e-06	-2.845983e-09	-1.622427e+01	-1.877850e+02
2.720000e-06	-2.392077e-06	-3.088305e-09	-1.688185e+01	-2.036919e+02
2.730000e-06	-2.484245e-06	-3.326089e-09	-1.753232e+01	-2.192487e+02
2.740000e-06	-2.575501e-06	-3.559641e-09	-1.817634e+01	-2.344078e+02
2.750000e-06	-2.665856e-06	-3.787124e-09	-1.881402e+01	-2.491332e+02
2.760000e-06	-2.755303e-06	-4.009404e-09	-1.944528e+01	-2.634005e+02
2.770000e-06	-2.843883e-06	-4.225638e-09	-2.007042e+01	-2.771961e+02
2.780000e-06	-2.931702e-06	-4.431877e-09	-2.069020e+01	-2.905159e+02
2.790000e-06	-3.018560e-06	-4.627351e-09	-2.130319e+01	-3.033633e+02
2.800000e-06	-3.104070e-06	-4.815958e-09	-2.190667e+01	-3.157464e+02
2.810000e-06	-3.188335e-06	-4.998049e-09	-2.250136e+01	-3.276760e+02
2.820000e-06	-3.271553e-06	-5.172049e-09	-2.308867e+01	-3.391632e+02
2.830000e-06	-3.353693e-06	-5.339771e-09	-2.366836e+01	-3.502177e+02
2.840000e-06	-3.434762e-06	-5.501392e-09	-2.424049e+01	-3.608470e+02
2.850000e-06	-3.514765e-06	-5.656358e-09	-2.480511e+01	-3.710557e+02
2.860000e-06	-3.593364e-06	-5.804868e-09	-2.535981e+01	-3.808462e+02
2.870000e-06	-3.670313e-06	-5.948317e-09	-2.590287e+01	-3.902194e+02
2.880000e-06	-3.745817e-06	-6.087060e-09	-2.643573e+01	-3.991767e+02
2.890000e-06	-3.819953e-06	-6.218799e-09	-2.695894e+01	-4.077207e+02
2.900000e-06	-3.892713e-06	-6.345778e-09	-2.747244e+01	-4.158573e+02
2.910000e-06	-3.964168e-06	-6.469403e-09	-2.797673e+01	-4.235961e+02
2.920000e-06	-4.034074e-06	-6.584481e-09	-2.847008e+01	-4.309517e+02
2.930000e-06	-4.102347e-06	-6.690572e-09	-2.895191e+01	-4.379429e+02
2.940000e-06	-4.169183e-06	-6.792807e-09	-2.942360e+01	-4.445922e+02
