# Temperatura_=_73.48
# Concentracion g/m^3_=_15000.0
# C_Vs_to_Am_M_A/Vsm_=_65563218390.804596
# pendiente_HvsI_1/m_=_3716.3
# ordenada_HvsI_A/m_=_1297.0
# frecuencia_Hz_=_301603.8866308181

Tiempo_(s)	Campo_(V.s)	Magnetizacion_(V.s)	Campo_(kA/m)	Magnetizacion_(A/m)
0.000000e+00	-5.421915e-06	-9.399923e-09	-3.833959e+01	-6.139251e+02
1.000000e-08	-5.419488e-06	-9.398005e-09	-3.832243e+01	-6.136796e+02
2.000000e-08	-5.415221e-06	-9.391656e-09	-3.829226e+01	-6.132959e+02
3.000000e-08	-5.409346e-06	-9.384604e-09	-3.825071e+01	-6.127706e+02
4.000000e-08	-5.401884e-06	-9.374310e-09	-3.819795e+01	-6.121028e+02
5.000000e-08	-5.392636e-06	-9.359521e-09	-3.813256e+01	-6.112946e+02
6.000000e-08	-5.381298e-06	-9.341741e-09	-3.805238e+01	-6.103520e+02
7.000000e-08	-5.367970e-06	-9.318293e-09	-3.795814e+01	-6.092841e+02
8.000000e-08	-5.352576e-06	-9.316089e-09	-3.784928e+01	-6.081032e+02
9.000000e-08	-5.334952e-06	-9.357278e-09	-3.772466e+01	-6.068232e+02
1.000000e-07	-5.315301e-06	-9.326026e-09	-3.758570e+01	-6.054585e+02
1.100000e-07	-5.293733e-06	-9.258019e-09	-3.743318e+01	-6.040224e+02
1.200000e-07	-5.270386e-06	-9.212986e-09	-3.726810e+01	-6.025251e+02
1.300000e-07	-5.245433e-06	-9.098556e-09	-3.709165e+01	-6.009728e+02
1.400000e-07	-5.218838e-06	-9.141422e-09	-3.690359e+01	-5.993662e+02
1.500000e-07	-5.190650e-06	-9.240065e-09	-3.670426e+01	-5.977005e+02
1.600000e-07	-5.160988e-06	-9.066902e-09	-3.649452e+01	-5.959656e+02
1.700000e-07	-5.129781e-06	-9.095888e-09	-3.627385e+01	-5.941468e+02
1.800000e-07	-5.096544e-06	-9.105307e-09	-3.603882e+01	-5.922260e+02
1.900000e-07	-5.061363e-06	-8.913739e-09	-3.579005e+01	-5.901839e+02
2.000000e-07	-5.024707e-06	-9.009623e-09	-3.553084e+01	-5.880016e+02
2.100000e-07	-4.986350e-06	-8.977097e-09	-3.525962e+01	-5.856625e+02
2.200000e-07	-4.946139e-06	-8.809684e-09	-3.497527e+01	-5.831540e+02
2.300000e-07	-4.903958e-06	-8.850764e-09	-3.467700e+01	-5.804681e+02
2.400000e-07	-4.859827e-06	-8.832035e-09	-3.436494e+01	-5.776027e+02
2.500000e-07	-4.813903e-06	-8.782545e-09	-3.404020e+01	-5.745604e+02
2.600000e-07	-4.766040e-06	-8.743204e-09	-3.370175e+01	-5.713489e+02
2.700000e-07	-4.716012e-06	-8.623232e-09	-3.334799e+01	-5.679787e+02
2.800000e-07	-4.663885e-06	-8.583335e-09	-3.297939e+01	-5.644621e+02
2.900000e-07	-4.609943e-06	-8.547400e-09	-3.259795e+01	-5.608117e+02
3.000000e-07	-4.554403e-06	-8.500558e-09	-3.220522e+01	-5.570384e+02
3.100000e-07	-4.497193e-06	-8.461981e-09	-3.180067e+01	-5.531504e+02
3.200000e-07	-4.438188e-06	-8.393743e-09	-3.138344e+01	-5.491525e+02
3.300000e-07	-4.377613e-06	-8.299130e-09	-3.095510e+01	-5.450459e+02
3.400000e-07	-4.315576e-06	-8.212911e-09	-3.051642e+01	-5.408280e+02
3.500000e-07	-4.252120e-06	-8.199589e-09	-3.006770e+01	-5.364935e+02
3.600000e-07	-4.187072e-06	-8.130881e-09	-2.960773e+01	-5.320354e+02
3.700000e-07	-4.120281e-06	-8.023922e-09	-2.913545e+01	-5.274459e+02
3.800000e-07	-4.051949e-06	-7.961852e-09	-2.865225e+01	-5.227176e+02
3.900000e-07	-3.982239e-06	-7.887905e-09	-2.815932e+01	-5.178447e+02
4.000000e-07	-3.911339e-06	-7.810710e-09	-2.765796e+01	-5.128232e+02
4.100000e-07	-3.839193e-06	-7.728612e-09	-2.714781e+01	-5.076515e+02
4.200000e-07	-3.765513e-06	-7.653802e-09	-2.662680e+01	-5.023301e+02
4.300000e-07	-3.690244e-06	-7.569324e-09	-2.609455e+01	-4.968613e+02
4.400000e-07	-3.613524e-06	-7.472760e-09	-2.555205e+01	-4.912482e+02
4.500000e-07	-3.535371e-06	-7.395183e-09	-2.499941e+01	-4.854942e+02
4.600000e-07	-3.455734e-06	-7.319321e-09	-2.443628e+01	-4.796018e+02
4.700000e-07	-3.374800e-06	-7.222135e-09	-2.386398e+01	-4.735723e+02
4.800000e-07	-3.292692e-06	-7.104949e-09	-2.328337e+01	-4.674053e+02
4.900000e-07	-3.209455e-06	-7.009120e-09	-2.269479e+01	-4.610986e+02
5.000000e-07	-3.125212e-06	-6.928098e-09	-2.209908e+01	-4.546480e+02
5.100000e-07	-3.040010e-06	-6.825725e-09	-2.149660e+01	-4.480486e+02
5.200000e-07	-2.953851e-06	-6.715827e-09	-2.088735e+01	-4.412945e+02
5.300000e-07	-2.866770e-06	-6.603896e-09	-2.027158e+01	-4.343802e+02
5.400000e-07	-2.778734e-06	-6.490344e-09	-1.964906e+01	-4.273008e+02
5.500000e-07	-2.689573e-06	-6.383309e-09	-1.901858e+01	-4.200527e+02
5.600000e-07	-2.599198e-06	-6.275619e-09	-1.837952e+01	-4.126337e+02
5.700000e-07	-2.507768e-06	-6.162291e-09	-1.773299e+01	-4.050431e+02
5.800000e-07	-2.415475e-06	-6.036531e-09	-1.708038e+01	-3.972815e+02
5.900000e-07	-2.322374e-06	-5.911077e-09	-1.642203e+01	-3.893498e+02
6.000000e-07	-2.228493e-06	-5.790058e-09	-1.575818e+01	-3.812495e+02
6.100000e-07	-2.133872e-06	-5.665130e-09	-1.508909e+01	-3.729810e+02
6.200000e-07	-2.038544e-06	-5.533650e-09	-1.441500e+01	-3.645439e+02
6.300000e-07	-1.942381e-06	-5.397856e-09	-1.373502e+01	-3.559363e+02
6.400000e-07	-1.845334e-06	-5.263068e-09	-1.304877e+01	-3.471543e+02
6.500000e-07	-1.747526e-06	-5.127463e-09	-1.235715e+01	-3.381925e+02
6.600000e-07	-1.649038e-06	-4.988773e-09	-1.166072e+01	-3.290441e+02
6.700000e-07	-1.549960e-06	-4.842752e-09	-1.096012e+01	-3.197015e+02
6.800000e-07	-1.450392e-06	-4.692385e-09	-1.025605e+01	-3.101568e+02
6.900000e-07	-1.350372e-06	-4.540987e-09	-9.548784e+00	-3.004024e+02
7.000000e-07	-1.249955e-06	-4.392958e-09	-8.838716e+00	-2.904315e+02
7.100000e-07	-1.149157e-06	-4.241307e-09	-8.125953e+00	-2.802388e+02
7.200000e-07	-1.047994e-06	-4.078241e-09	-7.410603e+00	-2.698204e+02
7.300000e-07	-9.464838e-07	-3.909721e-09	-6.692802e+00	-2.591739e+02
7.400000e-07	-8.445934e-07	-3.738588e-09	-5.972312e+00	-2.482980e+02
7.500000e-07	-7.423727e-07	-3.567076e-09	-5.249486e+00	-2.371923e+02
7.600000e-07	-6.399096e-07	-3.393416e-09	-4.524946e+00	-2.258568e+02
7.700000e-07	-5.372997e-07	-3.215894e-09	-3.799368e+00	-2.142910e+02
7.800000e-07	-4.346106e-07	-3.034371e-09	-3.073230e+00	-2.024935e+02
7.900000e-07	-3.318124e-07	-2.850379e-09	-2.346321e+00	-1.904616e+02
8.000000e-07	-2.288511e-07	-2.663191e-09	-1.618258e+00	-1.781904e+02
8.100000e-07	-1.257570e-07	-2.472462e-09	-8.892565e-01	-1.656731e+02
8.200000e-07	-2.260690e-08	-2.278573e-09	-1.598585e-01	-1.529008e+02
8.300000e-07	8.056610e-08	-2.079765e-09	5.697012e-01	-1.398619e+02
8.400000e-07	1.837233e-07	-1.877308e-09	1.299149e+00	-1.265432e+02
8.500000e-07	2.868343e-07	-1.670357e-09	2.028270e+00	-1.129297e+02
8.600000e-07	3.898412e-07	-1.459253e-09	2.756656e+00	-9.900490e+01
8.700000e-07	4.927008e-07	-1.241211e-09	3.483999e+00	-8.475203e+01
8.800000e-07	5.954493e-07	-1.015819e-09	4.210557e+00	-7.015424e+01
8.900000e-07	6.980490e-07	-7.853681e-10	4.936063e+00	-5.519585e+01
9.000000e-07	8.004563e-07	-5.501921e-10	5.660208e+00	-3.986341e+01
9.100000e-07	9.026209e-07	-3.107226e-10	6.382637e+00	-2.414701e+01
9.200000e-07	1.004512e-06	-6.568990e-11	7.103132e+00	-8.041703e+00
9.300000e-07	1.106020e-06	1.851716e-10	7.820916e+00	8.450907e+00
9.400000e-07	1.207026e-06	4.414165e-10	8.535154e+00	2.532121e+01
9.500000e-07	1.307605e-06	7.007297e-10	9.246374e+00	4.255019e+01
9.600000e-07	1.407791e-06	9.649879e-10	9.954809e+00	6.010838e+01
9.700000e-07	1.507535e-06	1.234624e-09	1.066012e+01	7.795522e+01
9.800000e-07	1.606759e-06	1.508374e-09	1.136176e+01	9.603902e+01
9.900000e-07	1.705371e-06	1.783894e-09	1.205907e+01	1.142976e+02
1.000000e-06	1.803216e-06	2.059689e-09	1.275095e+01	1.326595e+02
1.010000e-06	1.900130e-06	2.337964e-09	1.343625e+01	1.510464e+02
1.020000e-06	1.996197e-06	2.616779e-09	1.411556e+01	1.693755e+02
1.030000e-06	2.091549e-06	2.894253e-09	1.478982e+01	1.875626e+02
1.040000e-06	2.186218e-06	3.167944e-09	1.545925e+01	2.055260e+02
1.050000e-06	2.280164e-06	3.434418e-09	1.612356e+01	2.231890e+02
1.060000e-06	2.373309e-06	3.693977e-09	1.678221e+01	2.404837e+02
1.070000e-06	2.465696e-06	3.947186e-09	1.743549e+01	2.573530e+02
1.080000e-06	2.557349e-06	4.194664e-09	1.808359e+01	2.737523e+02
1.090000e-06	2.648144e-06	4.436237e-09	1.872563e+01	2.896502e+02
1.100000e-06	2.737761e-06	4.671777e-09	1.935933e+01	3.050284e+02
1.110000e-06	2.826156e-06	4.896339e-09	1.998439e+01	3.198805e+02
1.120000e-06	2.913614e-06	5.111649e-09	2.060283e+01	3.342097e+02
1.130000e-06	3.000223e-06	5.321658e-09	2.121526e+01	3.480271e+02
1.140000e-06	3.085856e-06	5.526598e-09	2.182079e+01	3.613481e+02
1.150000e-06	3.170427e-06	5.722864e-09	2.241881e+01	3.741903e+02
1.160000e-06	3.254048e-06	5.909688e-09	2.301011e+01	3.865708e+02
1.170000e-06	3.336677e-06	6.091096e-09	2.359440e+01	3.985046e+02
1.180000e-06	3.418028e-06	6.266103e-09	2.416965e+01	4.100033e+02
1.190000e-06	3.498065e-06	6.434458e-09	2.473561e+01	4.210747e+02
1.200000e-06	3.576856e-06	6.595479e-09	2.529276e+01	4.317232e+02
1.210000e-06	3.654369e-06	6.749770e-09	2.584087e+01	4.419510e+02
1.220000e-06	3.730599e-06	6.898506e-09	2.637992e+01	4.517588e+02
1.230000e-06	3.805445e-06	7.042202e-09	2.690916e+01	4.611481e+02
1.240000e-06	3.878673e-06	7.180413e-09	2.742698e+01	4.701222e+02
1.250000e-06	3.950326e-06	7.312553e-09	2.793365e+01	4.786875e+02
1.260000e-06	4.020608e-06	7.435251e-09	2.843063e+01	4.868541e+02
1.270000e-06	4.089478e-06	7.550549e-09	2.891763e+01	4.946364e+02
1.280000e-06	4.156975e-06	7.663104e-09	2.939491e+01	5.020522e+02
1.290000e-06	4.222931e-06	7.770789e-09	2.986130e+01	5.091223e+02
1.300000e-06	4.287178e-06	7.871937e-09	3.031561e+01	5.158691e+02
1.310000e-06	4.349872e-06	7.967727e-09	3.075893e+01	5.223150e+02
1.320000e-06	4.411121e-06	8.060628e-09	3.119204e+01	5.284816e+02
1.330000e-06	4.471032e-06	8.151605e-09	3.161568e+01	5.343878e+02
1.340000e-06	4.529483e-06	8.239045e-09	3.202900e+01	5.400494e+02
1.350000e-06	4.586082e-06	8.322289e-09	3.242923e+01	5.454785e+02
1.360000e-06	4.640866e-06	8.399890e-09	3.281662e+01	5.506834e+02
1.370000e-06	4.693991e-06	8.473848e-09	3.319228e+01	5.556694e+02
1.380000e-06	4.745277e-06	8.546275e-09	3.355493e+01	5.604388e+02
1.390000e-06	4.794487e-06	8.616246e-09	3.390291e+01	5.649924e+02
1.400000e-06	4.841758e-06	8.682034e-09	3.423717e+01	5.693301e+02
1.410000e-06	4.887429e-06	8.743245e-09	3.456012e+01	5.734518e+02
1.420000e-06	4.931585e-06	8.801665e-09	3.487236e+01	5.773582e+02
1.430000e-06	4.974037e-06	8.859402e-09	3.517254e+01	5.810508e+02
1.440000e-06	5.014577e-06	8.914410e-09	3.545921e+01	5.845320e+02
1.450000e-06	5.053357e-06	8.964890e-09	3.573343e+01	5.878055e+02
1.460000e-06	5.090477e-06	9.011400e-09	3.599592e+01	5.908750e+02
1.470000e-06	5.125941e-06	9.053294e-09	3.624669e+01	5.937446e+02
1.480000e-06	5.159495e-06	9.091039e-09	3.648396e+01	5.964183e+02
1.490000e-06	5.191092e-06	9.126073e-09	3.670739e+01	5.988993e+02
1.500000e-06	5.220961e-06	9.157635e-09	3.691860e+01	6.011906e+02
1.510000e-06	5.249146e-06	9.186693e-09	3.711791e+01	6.032946e+02
1.520000e-06	5.275464e-06	9.214864e-09	3.730401e+01	6.052138e+02
1.530000e-06	5.299657e-06	9.241315e-09	3.747508e+01	6.069508e+02
1.540000e-06	5.321888e-06	9.264212e-09	3.763228e+01	6.085092e+02
1.550000e-06	5.342410e-06	9.283811e-09	3.777740e+01	6.098936e+02
1.560000e-06	5.361173e-06	9.301778e-09	3.791007e+01	6.111099e+02
1.570000e-06	5.377904e-06	9.317706e-09	3.802838e+01	6.121652e+02
1.580000e-06	5.392623e-06	9.331900e-09	3.813246e+01	6.130673e+02
1.590000e-06	5.405377e-06	9.343902e-09	3.822265e+01	6.138243e+02
1.600000e-06	5.415966e-06	9.353164e-09	3.829752e+01	6.144442e+02
1.610000e-06	5.424366e-06	9.360651e-09	3.835693e+01	6.149333e+02
1.620000e-06	5.430819e-06	9.367184e-09	3.840255e+01	6.152963e+02
1.630000e-06	5.435475e-06	9.373247e-09	3.843548e+01	6.155358e+02
1.640000e-06	5.438235e-06	9.377494e-09	3.845500e+01	6.156515e+02
1.650000e-06	5.438943e-06	9.380106e-09	3.846000e+01	6.156412e+02
1.660000e-06	5.437765e-06	9.377197e-09	3.845167e+01	6.155008e+02
1.670000e-06	5.434929e-06	9.369934e-09	3.843162e+01	6.152257e+02
1.680000e-06	5.430457e-06	9.363564e-09	3.840000e+01	6.148115e+02
1.690000e-06	5.424122e-06	9.354394e-09	3.835519e+01	6.142553e+02
1.700000e-06	5.415905e-06	9.344296e-09	3.829709e+01	6.135567e+02
1.710000e-06	5.406096e-06	9.335597e-09	3.822773e+01	6.127188e+02
1.720000e-06	5.394613e-06	9.332925e-09	3.814654e+01	6.117481e+02
1.730000e-06	5.381184e-06	9.325617e-09	3.805157e+01	6.106545e+02
1.740000e-06	5.365671e-06	9.235367e-09	3.794188e+01	6.094507e+02
1.750000e-06	5.347810e-06	9.206091e-09	3.781557e+01	6.081511e+02
1.760000e-06	5.327242e-06	9.222814e-09	3.767014e+01	6.067697e+02
1.770000e-06	5.304257e-06	9.222217e-09	3.750761e+01	6.053194e+02
1.780000e-06	5.279847e-06	9.318123e-09	3.733500e+01	6.038096e+02
1.790000e-06	5.254755e-06	9.186356e-09	3.715757e+01	6.022454e+02
1.800000e-06	5.228450e-06	9.061685e-09	3.697156e+01	6.006263e+02
1.810000e-06	5.199863e-06	9.189250e-09	3.676941e+01	5.989465e+02
1.820000e-06	5.169271e-06	9.046173e-09	3.655309e+01	5.971947e+02
1.830000e-06	5.137132e-06	9.037915e-09	3.632583e+01	5.953552e+02
1.840000e-06	5.103027e-06	9.155289e-09	3.608466e+01	5.934097e+02
1.850000e-06	5.067244e-06	8.934423e-09	3.583163e+01	5.913388e+02
1.860000e-06	5.029737e-06	8.971851e-09	3.556641e+01	5.891238e+02
1.870000e-06	4.990209e-06	9.024131e-09	3.528690e+01	5.867490e+02
1.880000e-06	4.949052e-06	8.833468e-09	3.499587e+01	5.842025e+02
1.890000e-06	4.906168e-06	8.872599e-09	3.469263e+01	5.814778e+02
1.900000e-06	4.861601e-06	8.772757e-09	3.437749e+01	5.785737e+02
1.910000e-06	4.815295e-06	8.718229e-09	3.405005e+01	5.754941e+02
1.920000e-06	4.766869e-06	8.777827e-09	3.370761e+01	5.722472e+02
1.930000e-06	4.716753e-06	8.598825e-09	3.335323e+01	5.688442e+02
1.940000e-06	4.664988e-06	8.633999e-09	3.298719e+01	5.652976e+02
1.950000e-06	4.611100e-06	8.579645e-09	3.260613e+01	5.616196e+02
1.960000e-06	4.555209e-06	8.415617e-09	3.221091e+01	5.578208e+02
1.970000e-06	4.497594e-06	8.407180e-09	3.180351e+01	5.539086e+02
1.980000e-06	4.438543e-06	8.358228e-09	3.138595e+01	5.498871e+02
1.990000e-06	4.377984e-06	8.354489e-09	3.095772e+01	5.457566e+02
2.000000e-06	4.315664e-06	8.217684e-09	3.051704e+01	5.415139e+02
2.010000e-06	4.251731e-06	8.144719e-09	3.006496e+01	5.371532e+02
2.020000e-06	4.186318e-06	8.143639e-09	2.960240e+01	5.326672e+02
2.030000e-06	4.119479e-06	7.990754e-09	2.912977e+01	5.280482e+02
2.040000e-06	4.051145e-06	7.957406e-09	2.864656e+01	5.232890e+02
2.050000e-06	3.981230e-06	7.903644e-09	2.815218e+01	5.183841e+02
2.060000e-06	3.909857e-06	7.822208e-09	2.764749e+01	5.133301e+02
2.070000e-06	3.837172e-06	7.720244e-09	2.713352e+01	5.081259e+02
2.080000e-06	3.763213e-06	7.612526e-09	2.661054e+01	5.027723e+02
2.090000e-06	3.687887e-06	7.594191e-09	2.607789e+01	4.972720e+02
2.100000e-06	3.611013e-06	7.489749e-09	2.553429e+01	4.916280e+02
2.110000e-06	3.532519e-06	7.380594e-09	2.497924e+01	4.858438e+02
2.120000e-06	3.452700e-06	7.292750e-09	2.441482e+01	4.799216e+02
2.130000e-06	3.371751e-06	7.218380e-09	2.384242e+01	4.738624e+02
2.140000e-06	3.289631e-06	7.126998e-09	2.326172e+01	4.676654e+02
2.150000e-06	3.206458e-06	7.014394e-09	2.267360e+01	4.613278e+02
2.160000e-06	3.122294e-06	6.932637e-09	2.207845e+01	4.548455e+02
2.170000e-06	3.036900e-06	6.818405e-09	2.147461e+01	4.482130e+02
2.180000e-06	2.950154e-06	6.715506e-09	2.086121e+01	4.414247e+02
2.190000e-06	2.862272e-06	6.618580e-09	2.023977e+01	4.344750e+02
2.200000e-06	2.773403e-06	6.522964e-09	1.961136e+01	4.273594e+02
2.210000e-06	2.683546e-06	6.413776e-09	1.897596e+01	4.200744e+02
2.220000e-06	2.592763e-06	6.282689e-09	1.833402e+01	4.126184e+02
2.230000e-06	2.501149e-06	6.164211e-09	1.768619e+01	4.049907e+02
2.240000e-06	2.408653e-06	6.047414e-09	1.703213e+01	3.971921e+02
2.250000e-06	2.315227e-06	5.936704e-09	1.637149e+01	3.892239e+02
2.260000e-06	2.220927e-06	5.816338e-09	1.570468e+01	3.810871e+02
2.270000e-06	2.125782e-06	5.686823e-09	1.503189e+01	3.727823e+02
2.280000e-06	2.029777e-06	5.553516e-09	1.435301e+01	3.643085e+02
2.290000e-06	1.932997e-06	5.424841e-09	1.366866e+01	3.556635e+02
2.300000e-06	1.835679e-06	5.296139e-09	1.298050e+01	3.468431e+02
2.310000e-06	1.737904e-06	5.160719e-09	1.228911e+01	3.378416e+02
2.320000e-06	1.639522e-06	5.018203e-09	1.159343e+01	3.286519e+02
2.330000e-06	1.540555e-06	4.869530e-09	1.089361e+01	3.192663e+02
2.340000e-06	1.441172e-06	4.724547e-09	1.019086e+01	3.096769e+02
2.350000e-06	1.341425e-06	4.576569e-09	9.485523e+00	2.998763e+02
2.360000e-06	1.241286e-06	4.429756e-09	8.777414e+00	2.898579e+02
2.370000e-06	1.140764e-06	4.277351e-09	8.066600e+00	2.796168e+02
2.380000e-06	1.039852e-06	4.113920e-09	7.353027e+00	2.691493e+02
2.390000e-06	9.384937e-07	3.952239e-09	6.636302e+00	2.584533e+02
2.400000e-06	8.366763e-07	3.794858e-09	5.916328e+00	2.475278e+02
2.410000e-06	7.344317e-07	3.631270e-09	5.193333e+00	2.363725e+02
2.420000e-06	6.318604e-07	3.454531e-09	4.468028e+00	2.249874e+02
2.430000e-06	5.290823e-07	3.270828e-09	3.741261e+00	2.133717e+02
2.440000e-06	4.261327e-07	3.089913e-09	3.013281e+00	2.015240e+02
2.450000e-06	3.230113e-07	2.911130e-09	2.284087e+00	1.894408e+02
2.460000e-06	2.196921e-07	2.726585e-09	1.553493e+00	1.771172e+02
2.470000e-06	1.162918e-07	2.538447e-09	8.223257e-01	1.645458e+02
2.480000e-06	1.286889e-08	2.342026e-09	9.099882e-02	1.517170e+02
2.490000e-06	-9.062045e-08	2.137539e-09	-6.407978e-01	1.386190e+02
2.500000e-06	-1.940800e-07	1.932772e-09	-1.372384e+00	1.252381e+02
2.510000e-06	-2.974570e-07	1.727313e-09	-2.103386e+00	1.115589e+02
2.520000e-06	-4.007161e-07	1.516871e-09	-2.833555e+00	9.756488e+01
2.530000e-06	-5.038197e-07	1.296386e-09	-3.562623e+00	8.323912e+01
2.540000e-06	-6.067565e-07	1.071507e-09	-4.290513e+00	6.856497e+01
2.550000e-06	-7.094781e-07	8.441156e-10	-5.016881e+00	5.352710e+01
2.560000e-06	-8.118736e-07	6.087123e-10	-5.740943e+00	3.811271e+01
2.570000e-06	-9.138415e-07	3.656079e-10	-6.461980e+00	2.231283e+01
2.580000e-06	-1.015319e-06	1.170303e-10	-7.179548e+00	6.123784e+00
2.590000e-06	-1.116290e-06	-1.362537e-10	-7.893540e+00	-1.045123e+01
2.600000e-06	-1.216822e-06	-3.943689e-10	-8.604422e+00	-2.740069e+01
2.610000e-06	-1.316949e-06	-6.556554e-10	-9.312444e+00	-4.470343e+01
2.620000e-06	-1.416596e-06	-9.223991e-10	-1.001707e+01	-6.232763e+01
2.630000e-06	-1.515786e-06	-1.198963e-09	-1.071847e+01	-8.023034e+01
2.640000e-06	-1.614531e-06	-1.481195e-09	-1.141672e+01	-9.835751e+01
2.650000e-06	-1.712645e-06	-1.764698e-09	-1.211050e+01	-1.166449e+02
2.660000e-06	-1.810077e-06	-2.048367e-09	-1.279946e+01	-1.350193e+02
2.670000e-06	-1.906906e-06	-2.331360e-09	-1.348416e+01	-1.534012e+02
2.680000e-06	-2.003170e-06	-2.612771e-09	-1.416487e+01	-1.717073e+02
2.690000e-06	-2.098873e-06	-2.892077e-09	-1.484161e+01	-1.898536e+02
2.700000e-06	-2.193842e-06	-3.167593e-09	-1.551315e+01	-2.077592e+02
2.710000e-06	-2.287837e-06	-3.436109e-09	-1.617781e+01	-2.253490e+02
2.720000e-06	-2.380774e-06	-3.697259e-09	-1.683500e+01	-2.425574e+02
2.730000e-06	-2.472788e-06	-3.952672e-09	-1.748564e+01	-2.593296e+02
2.740000e-06	-2.564004e-06	-4.201758e-09	-1.813065e+01	-2.756240e+02
2.750000e-06	-2.654293e-06	-4.442768e-09	-1.876911e+01	-2.914120e+02
2.760000e-06	-2.743625e-06	-4.676398e-09	-1.940080e+01	-3.066780e+02
2.770000e-06	-2.832075e-06	-4.903741e-09	-2.002625e+01	-3.214178e+02
2.780000e-06	-2.919701e-06	-5.124331e-09	-2.064587e+01	-3.356366e+02
2.790000e-06	-3.006362e-06	-5.337265e-09	-2.125867e+01	-3.493466e+02
2.800000e-06	-3.091785e-06	-5.542950e-09	-2.186272e+01	-3.625638e+02
2.810000e-06	-3.176009e-06	-5.739077e-09	-2.245828e+01	-3.753060e+02
2.820000e-06	-3.259174e-06	-5.925236e-09	-2.304636e+01	-3.875900e+02
2.830000e-06	-3.341290e-06	-6.105236e-09	-2.362702e+01	-3.994301e+02
2.840000e-06	-3.422287e-06	-6.279764e-09	-2.419977e+01	-4.108370e+02
2.850000e-06	-3.502223e-06	-6.446356e-09	-2.476501e+01	-4.218179e+02
2.860000e-06	-3.580844e-06	-6.604466e-09	-2.532096e+01	-4.323765e+02
2.870000e-06	-3.657884e-06	-6.757436e-09	-2.586573e+01	-4.425146e+02
2.880000e-06	-3.733441e-06	-6.905730e-09	-2.640001e+01	-4.522330e+02
2.890000e-06	-3.807561e-06	-7.048163e-09	-2.692413e+01	-4.615333e+02
2.900000e-06	-3.880324e-06	-7.185719e-09	-2.743865e+01	-4.704195e+02
2.910000e-06	-3.951767e-06	-7.319474e-09	-2.794384e+01	-4.788987e+02
2.920000e-06	-4.021640e-06	-7.446612e-09	-2.843793e+01	-4.869820e+02
2.930000e-06	-4.089886e-06	-7.564015e-09	-2.892051e+01	-4.946845e+02
2.940000e-06	-4.156702e-06	-7.676182e-09	-2.939298e+01	-5.020247e+02
