# Temperatura_=_40.59
# Concentracion g/m^3_=_15000.0
# C_Vs_to_Am_M_A/Vsm_=_65563218390.804596
# pendiente_HvsI_1/m_=_3716.3
# ordenada_HvsI_A/m_=_1297.0
# frecuencia_Hz_=_301595.936286427

Tiempo_(s)	Campo_(V.s)	Magnetizacion_(V.s)	Campo_(kA/m)	Magnetizacion_(A/m)
0.000000e+00	-5.409203e-06	-8.199449e-09	-3.834244e+01	-5.355494e+02
1.000000e-08	-5.406851e-06	-8.196781e-09	-3.832578e+01	-5.353636e+02
2.000000e-08	-5.402628e-06	-8.193361e-09	-3.829584e+01	-5.350670e+02
3.000000e-08	-5.396809e-06	-8.188217e-09	-3.825460e+01	-5.346563e+02
4.000000e-08	-5.389427e-06	-8.180017e-09	-3.820227e+01	-5.341298e+02
5.000000e-08	-5.380249e-06	-8.169717e-09	-3.813721e+01	-5.334882e+02
6.000000e-08	-5.369036e-06	-8.156572e-09	-3.805773e+01	-5.327358e+02
7.000000e-08	-5.355843e-06	-8.141869e-09	-3.796421e+01	-5.318802e+02
8.000000e-08	-5.340537e-06	-8.136641e-09	-3.785572e+01	-5.309328e+02
9.000000e-08	-5.323030e-06	-8.139575e-09	-3.773162e+01	-5.299071e+02
1.000000e-07	-5.303473e-06	-8.130270e-09	-3.759300e+01	-5.288179e+02
1.100000e-07	-5.281986e-06	-8.101589e-09	-3.744069e+01	-5.276798e+02
1.200000e-07	-5.258721e-06	-8.054205e-09	-3.727578e+01	-5.265046e+02
1.300000e-07	-5.233838e-06	-8.005772e-09	-3.709939e+01	-5.253007e+02
1.400000e-07	-5.207351e-06	-8.011555e-09	-3.691164e+01	-5.240708e+02
1.500000e-07	-5.179311e-06	-8.013173e-09	-3.671289e+01	-5.228118e+02
1.600000e-07	-5.149856e-06	-7.975232e-09	-3.650410e+01	-5.215141e+02
1.700000e-07	-5.118793e-06	-7.960187e-09	-3.628391e+01	-5.201630e+02
1.800000e-07	-5.085676e-06	-7.923154e-09	-3.604917e+01	-5.187392e+02
1.900000e-07	-5.050620e-06	-7.873352e-09	-3.580068e+01	-5.172211e+02
2.000000e-07	-5.014058e-06	-7.879304e-09	-3.554151e+01	-5.155868e+02
2.100000e-07	-4.975805e-06	-7.858886e-09	-3.527036e+01	-5.138165e+02
2.200000e-07	-4.935710e-06	-7.789650e-09	-3.498615e+01	-5.118942e+02
2.300000e-07	-4.893696e-06	-7.770491e-09	-3.468834e+01	-5.098095e+02
2.400000e-07	-4.849709e-06	-7.748430e-09	-3.437654e+01	-5.075584e+02
2.500000e-07	-4.803955e-06	-7.694704e-09	-3.405222e+01	-5.051434e+02
2.600000e-07	-4.756347e-06	-7.660733e-09	-3.371476e+01	-5.025728e+02
2.700000e-07	-4.706631e-06	-7.612779e-09	-3.336235e+01	-4.998598e+02
2.800000e-07	-4.654792e-06	-7.552422e-09	-3.299490e+01	-4.970200e+02
2.900000e-07	-4.601053e-06	-7.510155e-09	-3.261398e+01	-4.940703e+02
3.000000e-07	-4.545690e-06	-7.471573e-09	-3.222154e+01	-4.910259e+02
3.100000e-07	-4.488680e-06	-7.442071e-09	-3.181744e+01	-4.878993e+02
3.200000e-07	-4.429844e-06	-7.404497e-09	-3.140038e+01	-4.846984e+02
3.300000e-07	-4.369396e-06	-7.337373e-09	-3.097190e+01	-4.814262e+02
3.400000e-07	-4.307519e-06	-7.278038e-09	-3.053330e+01	-4.780806e+02
3.500000e-07	-4.244212e-06	-7.237844e-09	-3.008455e+01	-4.746551e+02
3.600000e-07	-4.179367e-06	-7.187533e-09	-2.962491e+01	-4.711396e+02
3.700000e-07	-4.112853e-06	-7.121697e-09	-2.915344e+01	-4.675223e+02
3.800000e-07	-4.044760e-06	-7.068719e-09	-2.867077e+01	-4.637908e+02
3.900000e-07	-3.975281e-06	-7.011634e-09	-2.817827e+01	-4.599341e+02
4.000000e-07	-3.904600e-06	-6.940553e-09	-2.767726e+01	-4.559433e+02
4.100000e-07	-3.832662e-06	-6.882372e-09	-2.716734e+01	-4.518127e+02
4.200000e-07	-3.759178e-06	-6.823457e-09	-2.664646e+01	-4.475397e+02
4.300000e-07	-3.684128e-06	-6.753869e-09	-2.611448e+01	-4.431250e+02
4.400000e-07	-3.607608e-06	-6.678264e-09	-2.557207e+01	-4.385718e+02
4.500000e-07	-3.529581e-06	-6.607272e-09	-2.501899e+01	-4.338845e+02
4.600000e-07	-3.450118e-06	-6.542328e-09	-2.445572e+01	-4.290683e+02
4.700000e-07	-3.369420e-06	-6.469074e-09	-2.388370e+01	-4.241275e+02
4.800000e-07	-3.287557e-06	-6.386421e-09	-2.330343e+01	-4.190648e+02
4.900000e-07	-3.204561e-06	-6.307080e-09	-2.271512e+01	-4.138813e+02
5.000000e-07	-3.120587e-06	-6.228032e-09	-2.211989e+01	-4.085755e+02
5.100000e-07	-3.035656e-06	-6.140175e-09	-2.151786e+01	-4.031439e+02
5.200000e-07	-2.949743e-06	-6.053667e-09	-2.090887e+01	-3.975816e+02
5.300000e-07	-2.862868e-06	-5.971022e-09	-2.029307e+01	-3.918827e+02
5.400000e-07	-2.775066e-06	-5.879944e-09	-1.967070e+01	-3.860411e+02
5.500000e-07	-2.686203e-06	-5.781075e-09	-1.904081e+01	-3.800514e+02
5.600000e-07	-2.596120e-06	-5.685494e-09	-1.840227e+01	-3.739094e+02
5.700000e-07	-2.504989e-06	-5.594033e-09	-1.775629e+01	-3.676121e+02
5.800000e-07	-2.413021e-06	-5.499024e-09	-1.710440e+01	-3.611582e+02
5.900000e-07	-2.320248e-06	-5.397862e-09	-1.644678e+01	-3.545475e+02
6.000000e-07	-2.226666e-06	-5.295237e-09	-1.578344e+01	-3.477807e+02
6.100000e-07	-2.132309e-06	-5.190232e-09	-1.511460e+01	-3.408584e+02
6.200000e-07	-2.037239e-06	-5.081669e-09	-1.444071e+01	-3.337810e+02
6.300000e-07	-1.941435e-06	-4.970021e-09	-1.376162e+01	-3.265477e+02
6.400000e-07	-1.844846e-06	-4.856049e-09	-1.307696e+01	-3.191564e+02
6.500000e-07	-1.747430e-06	-4.739428e-09	-1.238644e+01	-3.116034e+02
6.600000e-07	-1.649229e-06	-4.617304e-09	-1.169035e+01	-3.038833e+02
6.700000e-07	-1.550375e-06	-4.494723e-09	-1.098963e+01	-2.959897e+02
6.800000e-07	-1.451032e-06	-4.373087e-09	-1.028545e+01	-2.879150e+02
6.900000e-07	-1.351274e-06	-4.249166e-09	-9.578335e+00	-2.796517e+02
7.000000e-07	-1.251089e-06	-4.121494e-09	-8.868188e+00	-2.711921e+02
7.100000e-07	-1.150521e-06	-3.990735e-09	-8.155320e+00	-2.625293e+02
7.200000e-07	-1.049650e-06	-3.855523e-09	-7.440311e+00	-2.536574e+02
7.300000e-07	-9.484527e-07	-3.714806e-09	-6.722986e+00	-2.445715e+02
7.400000e-07	-8.468936e-07	-3.571372e-09	-6.003098e+00	-2.352678e+02
7.500000e-07	-7.450432e-07	-3.423863e-09	-5.281144e+00	-2.257433e+02
7.600000e-07	-6.429209e-07	-3.272566e-09	-4.557263e+00	-2.159958e+02
7.700000e-07	-5.405638e-07	-3.118651e-09	-3.831718e+00	-2.060231e+02
7.800000e-07	-4.380485e-07	-2.964610e-09	-3.105051e+00	-1.958228e+02
7.900000e-07	-3.354322e-07	-2.808394e-09	-2.377669e+00	-1.853923e+02
8.000000e-07	-2.327168e-07	-2.644627e-09	-1.649583e+00	-1.747279e+02
8.100000e-07	-1.298500e-07	-2.474053e-09	-9.204250e-01	-1.638254e+02
8.200000e-07	-2.687952e-08	-2.300961e-09	-1.905321e-01	-1.526794e+02
8.300000e-07	7.609400e-08	-2.127670e-09	5.393826e-01	-1.412837e+02
8.400000e-07	1.790260e-07	-1.949893e-09	1.269003e+00	-1.296311e+02
8.500000e-07	2.819142e-07	-1.766227e-09	1.998313e+00	-1.177136e+02
8.600000e-07	3.847472e-07	-1.580401e-09	2.727232e+00	-1.055226e+02
8.700000e-07	4.874646e-07	-1.390661e-09	3.455330e+00	-9.304844e+01
8.800000e-07	5.900477e-07	-1.194448e-09	4.182478e+00	-8.028143e+01
8.900000e-07	6.924742e-07	-9.952183e-10	4.908515e+00	-6.721154e+01
9.000000e-07	7.946634e-07	-7.920922e-10	5.632870e+00	-5.382912e+01
9.100000e-07	8.965787e-07	-5.843830e-10	6.355284e+00	-4.012555e+01
9.200000e-07	9.982540e-07	-3.721816e-10	7.075996e+00	-2.609419e+01
9.300000e-07	1.099548e-06	-1.560220e-10	7.794005e+00	-1.173158e+01
9.400000e-07	1.200350e-06	6.343475e-11	8.508528e+00	2.961243e+00
9.500000e-07	1.300716e-06	2.891062e-10	9.219961e+00	1.797722e+01
9.600000e-07	1.400688e-06	5.208608e-10	9.928599e+00	3.330185e+01
9.700000e-07	1.500286e-06	7.592437e-10	1.063459e+01	4.891198e+01
9.800000e-07	1.599379e-06	1.002634e-09	1.133699e+01	6.477493e+01
9.900000e-07	1.697751e-06	1.249489e-09	1.203430e+01	8.084811e+01
1.000000e-06	1.795337e-06	1.499305e-09	1.272602e+01	9.707941e+01
1.010000e-06	1.892066e-06	1.748222e-09	1.341167e+01	1.134082e+02
1.020000e-06	1.987949e-06	1.997831e-09	1.409132e+01	1.297670e+02
1.030000e-06	2.083070e-06	2.245836e-09	1.476558e+01	1.460840e+02
1.040000e-06	2.177432e-06	2.489847e-09	1.543445e+01	1.622857e+02
1.050000e-06	2.271029e-06	2.729733e-09	1.609790e+01	1.783002e+02
1.060000e-06	2.363865e-06	2.965458e-09	1.675596e+01	1.940598e+02
1.070000e-06	2.456006e-06	3.199965e-09	1.740909e+01	2.095042e+02
1.080000e-06	2.547520e-06	3.430945e-09	1.805777e+01	2.245822e+02
1.090000e-06	2.638171e-06	3.655214e-09	1.870034e+01	2.392536e+02
1.100000e-06	2.727632e-06	3.870972e-09	1.933447e+01	2.534891e+02
1.110000e-06	2.815924e-06	4.078198e-09	1.996032e+01	2.672705e+02
1.120000e-06	2.903240e-06	4.277918e-09	2.057925e+01	2.805893e+02
1.130000e-06	2.989643e-06	4.471865e-09	2.119170e+01	2.934446e+02
1.140000e-06	3.075071e-06	4.660581e-09	2.179725e+01	3.058417e+02
1.150000e-06	3.159541e-06	4.842078e-09	2.239600e+01	3.177889e+02
1.160000e-06	3.243113e-06	5.017920e-09	2.298839e+01	3.292960e+02
1.170000e-06	3.325604e-06	5.189321e-09	2.357312e+01	3.403720e+02
1.180000e-06	3.406790e-06	5.354117e-09	2.414860e+01	3.510246e+02
1.190000e-06	3.486681e-06	5.510146e-09	2.471489e+01	3.612591e+02
1.200000e-06	3.565313e-06	5.657161e-09	2.527227e+01	3.710788e+02
1.210000e-06	3.642706e-06	5.797133e-09	2.582085e+01	3.804859e+02
1.220000e-06	3.718883e-06	5.932681e-09	2.636083e+01	3.894824e+02
1.230000e-06	3.793597e-06	6.063651e-09	2.689043e+01	3.980718e+02
1.240000e-06	3.866626e-06	6.187276e-09	2.740808e+01	4.062600e+02
1.250000e-06	3.938113e-06	6.303876e-09	2.791481e+01	4.140564e+02
1.260000e-06	4.008224e-06	6.414926e-09	2.841178e+01	4.214747e+02
1.270000e-06	4.076991e-06	6.522337e-09	2.889923e+01	4.285323e+02
1.280000e-06	4.144385e-06	6.623977e-09	2.937695e+01	4.352505e+02
1.290000e-06	4.210203e-06	6.718697e-09	2.984349e+01	4.416525e+02
1.300000e-06	4.274323e-06	6.810469e-09	3.029799e+01	4.477627e+02
1.310000e-06	4.336950e-06	6.899086e-09	3.074192e+01	4.536045e+02
1.320000e-06	4.398133e-06	6.984234e-09	3.117560e+01	4.591991e+02
1.330000e-06	4.457942e-06	7.066570e-09	3.159955e+01	4.645642e+02
1.340000e-06	4.516187e-06	7.146314e-09	3.201242e+01	4.697128e+02
1.350000e-06	4.572573e-06	7.223138e-09	3.241210e+01	4.746534e+02
1.360000e-06	4.627279e-06	7.293973e-09	3.279988e+01	4.793900e+02
1.370000e-06	4.680382e-06	7.359870e-09	3.317629e+01	4.839228e+02
1.380000e-06	4.731570e-06	7.423869e-09	3.353913e+01	4.882496e+02
1.390000e-06	4.780678e-06	7.486419e-09	3.388722e+01	4.923670e+02
1.400000e-06	4.827955e-06	7.545913e-09	3.422234e+01	4.962716e+02
1.410000e-06	4.873571e-06	7.601381e-09	3.454569e+01	4.999615e+02
1.420000e-06	4.917636e-06	7.653215e-09	3.485804e+01	5.034371e+02
1.430000e-06	4.960045e-06	7.701004e-09	3.515865e+01	5.067011e+02
1.440000e-06	5.000541e-06	7.745891e-09	3.544570e+01	5.097591e+02
1.450000e-06	5.039274e-06	7.788740e-09	3.572026e+01	5.126185e+02
1.460000e-06	5.076392e-06	7.828608e-09	3.598335e+01	5.152882e+02
1.470000e-06	5.111828e-06	7.864510e-09	3.623454e+01	5.177773e+02
1.480000e-06	5.145351e-06	7.897558e-09	3.647217e+01	5.200946e+02
1.490000e-06	5.176968e-06	7.927358e-09	3.669628e+01	5.222475e+02
1.500000e-06	5.206879e-06	7.952960e-09	3.690830e+01	5.242416e+02
1.510000e-06	5.235111e-06	7.977060e-09	3.710842e+01	5.260807e+02
1.520000e-06	5.261501e-06	8.001269e-09	3.729548e+01	5.277670e+02
1.530000e-06	5.285809e-06	8.024914e-09	3.746778e+01	5.293016e+02
1.540000e-06	5.308119e-06	8.045968e-09	3.762592e+01	5.306852e+02
1.550000e-06	5.328652e-06	8.063157e-09	3.777147e+01	5.319189e+02
1.560000e-06	5.347410e-06	8.077999e-09	3.790444e+01	5.330048e+02
1.570000e-06	5.364224e-06	8.091350e-09	3.802362e+01	5.339466e+02
1.580000e-06	5.379015e-06	8.103019e-09	3.812846e+01	5.347493e+02
1.590000e-06	5.391793e-06	8.113777e-09	3.821904e+01	5.354195e+02
1.600000e-06	5.402496e-06	8.123428e-09	3.829490e+01	5.359646e+02
1.610000e-06	5.410977e-06	8.131613e-09	3.835502e+01	5.363919e+02
1.620000e-06	5.417431e-06	8.136674e-09	3.840077e+01	5.367078e+02
1.630000e-06	5.422140e-06	8.140594e-09	3.843415e+01	5.369174e+02
1.640000e-06	5.424983e-06	8.145016e-09	3.845430e+01	5.370235e+02
1.650000e-06	5.425787e-06	8.146803e-09	3.846000e+01	5.370265e+02
1.660000e-06	5.424690e-06	8.144522e-09	3.845222e+01	5.369248e+02
1.670000e-06	5.421933e-06	8.139078e-09	3.843268e+01	5.367153e+02
1.680000e-06	5.417565e-06	8.132224e-09	3.840172e+01	5.363942e+02
1.690000e-06	5.411290e-06	8.124941e-09	3.835724e+01	5.359586e+02
1.700000e-06	5.403085e-06	8.116611e-09	3.829908e+01	5.354069e+02
1.710000e-06	5.393300e-06	8.107654e-09	3.822972e+01	5.347409e+02
1.720000e-06	5.381875e-06	8.100808e-09	3.814873e+01	5.339653e+02
1.730000e-06	5.368511e-06	8.080986e-09	3.805401e+01	5.330888e+02
1.740000e-06	5.353067e-06	8.050671e-09	3.794453e+01	5.321231e+02
1.750000e-06	5.335370e-06	8.025115e-09	3.781909e+01	5.310823e+02
1.760000e-06	5.315094e-06	8.016491e-09	3.767536e+01	5.299812e+02
1.770000e-06	5.292353e-06	8.032001e-09	3.751417e+01	5.288339e+02
1.780000e-06	5.268082e-06	8.032400e-09	3.734213e+01	5.276518e+02
1.790000e-06	5.243063e-06	7.973226e-09	3.716478e+01	5.264420e+02
1.800000e-06	5.216801e-06	7.935718e-09	3.697863e+01	5.252061e+02
1.810000e-06	5.188388e-06	7.938306e-09	3.677723e+01	5.239396e+02
1.820000e-06	5.157978e-06	7.922751e-09	3.656167e+01	5.226316e+02
1.830000e-06	5.125941e-06	7.930118e-09	3.633458e+01	5.212664e+02
1.840000e-06	5.092047e-06	7.933784e-09	3.609433e+01	5.198240e+02
1.850000e-06	5.056481e-06	7.892925e-09	3.584222e+01	5.182825e+02
1.860000e-06	5.019192e-06	7.880997e-09	3.557791e+01	5.166204e+02
1.870000e-06	4.979923e-06	7.875135e-09	3.529955e+01	5.148184e+02
1.880000e-06	4.938950e-06	7.814013e-09	3.500912e+01	5.128617e+02
1.890000e-06	4.896226e-06	7.795957e-09	3.470627e+01	5.107412e+02
1.900000e-06	4.851814e-06	7.788150e-09	3.439147e+01	5.084543e+02
1.910000e-06	4.805675e-06	7.722179e-09	3.406442e+01	5.060048e+02
1.920000e-06	4.757471e-06	7.682862e-09	3.372273e+01	5.034022e+02
1.930000e-06	4.707518e-06	7.656706e-09	3.336864e+01	5.006604e+02
1.940000e-06	4.655895e-06	7.624853e-09	3.300272e+01	4.977954e+02
1.950000e-06	4.602201e-06	7.586385e-09	3.262212e+01	4.948239e+02
1.960000e-06	4.546499e-06	7.503664e-09	3.222728e+01	4.917608e+02
1.970000e-06	4.489069e-06	7.450105e-09	3.182019e+01	4.886174e+02
1.980000e-06	4.430132e-06	7.423455e-09	3.140243e+01	4.854009e+02
1.990000e-06	4.369740e-06	7.375354e-09	3.097435e+01	4.821131e+02
2.000000e-06	4.307688e-06	7.319504e-09	3.053450e+01	4.787508e+02
2.010000e-06	4.243969e-06	7.264723e-09	3.008284e+01	4.753067e+02
2.020000e-06	4.178722e-06	7.220633e-09	2.962034e+01	4.717702e+02
2.030000e-06	4.112015e-06	7.144778e-09	2.914749e+01	4.681291e+02
2.040000e-06	4.043863e-06	7.089214e-09	2.866441e+01	4.643715e+02
2.050000e-06	3.974233e-06	7.057728e-09	2.817084e+01	4.604864e+02
2.060000e-06	3.903094e-06	6.978671e-09	2.766659e+01	4.564658e+02
2.070000e-06	3.830563e-06	6.904115e-09	2.715245e+01	4.523044e+02
2.080000e-06	3.756729e-06	6.835084e-09	2.662909e+01	4.480007e+02
2.090000e-06	3.681547e-06	6.785844e-09	2.609618e+01	4.435557e+02
2.100000e-06	3.604943e-06	6.727895e-09	2.555318e+01	4.389731e+02
2.110000e-06	3.526683e-06	6.639313e-09	2.499844e+01	4.342575e+02
2.120000e-06	3.447030e-06	6.570500e-09	2.443384e+01	4.294140e+02
2.130000e-06	3.366338e-06	6.491405e-09	2.386186e+01	4.244466e+02
2.140000e-06	3.284498e-06	6.406683e-09	2.328175e+01	4.193578e+02
2.150000e-06	3.201551e-06	6.328967e-09	2.269378e+01	4.141480e+02
2.160000e-06	3.117599e-06	6.261195e-09	2.209870e+01	4.088153e+02
2.170000e-06	3.032523e-06	6.182813e-09	2.149565e+01	4.033559e+02
2.180000e-06	2.946096e-06	6.083010e-09	2.088303e+01	3.977646e+02
2.190000e-06	2.858447e-06	5.996006e-09	2.026174e+01	3.920354e+02
2.200000e-06	2.769800e-06	5.918626e-09	1.963338e+01	3.861622e+02
2.210000e-06	2.680196e-06	5.831748e-09	1.899823e+01	3.801399e+02
2.220000e-06	2.589711e-06	5.728147e-09	1.835684e+01	3.739646e+02
2.230000e-06	2.498371e-06	5.628900e-09	1.770938e+01	3.676335e+02
2.240000e-06	2.406247e-06	5.533228e-09	1.705638e+01	3.611458e+02
2.250000e-06	2.313364e-06	5.429897e-09	1.639798e+01	3.545013e+02
2.260000e-06	2.219554e-06	5.326335e-09	1.573302e+01	3.477009e+02
2.270000e-06	2.124685e-06	5.222977e-09	1.506056e+01	3.407451e+02
2.280000e-06	2.028867e-06	5.115667e-09	1.438137e+01	3.336341e+02
2.290000e-06	1.932372e-06	4.999364e-09	1.369737e+01	3.263669e+02
2.300000e-06	1.835290e-06	4.887935e-09	1.300922e+01	3.189411e+02
2.310000e-06	1.737645e-06	4.782370e-09	1.231707e+01	3.113525e+02
2.320000e-06	1.639458e-06	4.665406e-09	1.162109e+01	3.035955e+02
2.330000e-06	1.540729e-06	4.535977e-09	1.092126e+01	2.956635e+02
2.340000e-06	1.441532e-06	4.408237e-09	1.021812e+01	2.875488e+02
2.350000e-06	1.341911e-06	4.282740e-09	9.511967e+00	2.792438e+02
2.360000e-06	1.241914e-06	4.154297e-09	8.803146e+00	2.707409e+02
2.370000e-06	1.141668e-06	4.024079e-09	8.092570e+00	2.620335e+02
2.380000e-06	1.041117e-06	3.889144e-09	7.379828e+00	2.531158e+02
2.390000e-06	9.401322e-07	3.748370e-09	6.664007e+00	2.439833e+02
2.400000e-06	8.387604e-07	3.604570e-09	5.945446e+00	2.346323e+02
2.410000e-06	7.370032e-07	3.461401e-09	5.224153e+00	2.250600e+02
2.420000e-06	6.349057e-07	3.314908e-09	4.500448e+00	2.152641e+02
2.430000e-06	5.324556e-07	3.161204e-09	3.774244e+00	2.052426e+02
2.440000e-06	4.296722e-07	3.003748e-09	3.045677e+00	1.949929e+02
2.450000e-06	3.267536e-07	2.845399e-09	2.316151e+00	1.845123e+02
2.460000e-06	2.237357e-07	2.684535e-09	1.585922e+00	1.737971e+02
2.470000e-06	1.205889e-07	2.521743e-09	8.547793e-01	1.628426e+02
2.480000e-06	1.735958e-08	2.353062e-09	1.230511e-01	1.516434e+02
2.490000e-06	-8.595022e-08	2.175953e-09	-6.092472e-01	1.401930e+02
2.500000e-06	-1.892480e-07	1.995231e-09	-1.341461e+00	1.284841e+02
2.510000e-06	-2.923986e-07	1.813948e-09	-2.072630e+00	1.165085e+02
2.520000e-06	-3.954228e-07	1.631157e-09	-2.802904e+00	1.042573e+02
2.530000e-06	-4.983552e-07	1.441227e-09	-3.532528e+00	9.172104e+01
2.540000e-06	-6.010667e-07	1.244333e-09	-4.260585e+00	7.888971e+01
2.550000e-06	-7.034542e-07	1.042927e-09	-4.986345e+00	6.575337e+01
2.560000e-06	-8.054851e-07	8.350554e-10	-5.709578e+00	5.230255e+01
2.570000e-06	-9.070485e-07	6.221093e-10	-6.429498e+00	3.852895e+01
2.580000e-06	-1.008151e-06	4.058110e-10	-7.146153e+00	2.442651e+01
2.590000e-06	-1.108848e-06	1.850923e-10	-7.859930e+00	9.992606e+00
2.600000e-06	-1.209189e-06	-4.131501e-11	-8.571181e+00	-4.770550e+00
2.610000e-06	-1.309145e-06	-2.732180e-10	-9.279707e+00	-1.985442e+01
2.620000e-06	-1.408637e-06	-5.095178e-10	-9.984941e+00	-3.524276e+01
2.630000e-06	-1.507621e-06	-7.485085e-10	-1.068658e+01	-5.091042e+01
2.640000e-06	-1.606095e-06	-9.896161e-10	-1.138460e+01	-6.682259e+01
2.650000e-06	-1.704026e-06	-1.236199e-09	-1.207877e+01	-8.293462e+01
2.660000e-06	-1.801351e-06	-1.486639e-09	-1.276865e+01	-9.919243e+01
2.670000e-06	-1.898070e-06	-1.736833e-09	-1.345423e+01	-1.155338e+02
2.680000e-06	-1.994246e-06	-1.984723e-09	-1.413596e+01	-1.318900e+02
2.690000e-06	-2.089895e-06	-2.231498e-09	-1.481395e+01	-1.481888e+02
2.700000e-06	-2.184758e-06	-2.477992e-09	-1.548638e+01	-1.643566e+02
2.710000e-06	-2.278511e-06	-2.721875e-09	-1.615093e+01	-1.803222e+02
2.720000e-06	-2.371186e-06	-2.961896e-09	-1.680785e+01	-1.960193e+02
2.730000e-06	-2.463060e-06	-3.197231e-09	-1.745909e+01	-2.113894e+02
2.740000e-06	-2.554108e-06	-3.427429e-09	-1.810447e+01	-2.263836e+02
2.750000e-06	-2.644200e-06	-3.652511e-09	-1.874308e+01	-2.409639e+02
2.760000e-06	-2.733335e-06	-3.871685e-09	-1.937489e+01	-2.551035e+02
2.770000e-06	-2.821669e-06	-4.084135e-09	-2.000104e+01	-2.687865e+02
2.780000e-06	-2.909272e-06	-4.287793e-09	-2.062200e+01	-2.820060e+02
2.790000e-06	-2.995761e-06	-4.481946e-09	-2.123507e+01	-2.947629e+02
2.800000e-06	-3.080960e-06	-4.670160e-09	-2.183899e+01	-3.070630e+02
2.810000e-06	-3.165030e-06	-4.852341e-09	-2.243491e+01	-3.189153e+02
2.820000e-06	-3.248076e-06	-5.025538e-09	-2.302357e+01	-3.303296e+02
2.830000e-06	-3.330045e-06	-5.191372e-09	-2.360460e+01	-3.413146e+02
2.840000e-06	-3.410911e-06	-5.350602e-09	-2.417781e+01	-3.518775e+02
2.850000e-06	-3.490731e-06	-5.503999e-09	-2.474361e+01	-3.620231e+02
2.860000e-06	-3.569201e-06	-5.652106e-09	-2.529982e+01	-3.717545e+02
2.870000e-06	-3.646055e-06	-5.794907e-09	-2.584460e+01	-3.810737e+02
2.880000e-06	-3.721416e-06	-5.932602e-09	-2.637878e+01	-3.899829e+02
2.890000e-06	-3.795383e-06	-6.063796e-09	-2.690309e+01	-3.984859e+02
2.900000e-06	-3.868050e-06	-6.189767e-09	-2.741818e+01	-4.065895e+02
2.910000e-06	-3.939396e-06	-6.312394e-09	-2.792390e+01	-4.143038e+02
2.920000e-06	-4.009159e-06	-6.428308e-09	-2.841841e+01	-4.216435e+02
2.930000e-06	-4.077355e-06	-6.535657e-09	-2.890181e+01	-4.286268e+02
2.940000e-06	-4.144101e-06	-6.637661e-09	-2.937493e+01	-4.352754e+02
