# Temperatura_=_47.32
# Concentracion g/m^3_=_15000.0
# C_Vs_to_Am_M_A/Vsm_=_65563218390.804596
# pendiente_HvsI_1/m_=_3716.3
# ordenada_HvsI_A/m_=_1297.0
# frecuencia_Hz_=_301601.1266672316

Tiempo_(s)	Campo_(V.s)	Magnetizacion_(V.s)	Campo_(kA/m)	Magnetizacion_(A/m)
0.000000e+00	-5.415513e-06	-8.400534e-09	-3.833593e+01	-5.483053e+02
1.000000e-08	-5.412883e-06	-8.397562e-09	-3.831731e+01	-5.480562e+02
2.000000e-08	-5.408497e-06	-8.391209e-09	-3.828626e+01	-5.476946e+02
3.000000e-08	-5.402470e-06	-8.385801e-09	-3.824360e+01	-5.472221e+02
4.000000e-08	-5.394871e-06	-8.375531e-09	-3.818980e+01	-5.466409e+02
5.000000e-08	-5.385411e-06	-8.360268e-09	-3.812284e+01	-5.459545e+02
6.000000e-08	-5.373846e-06	-8.342293e-09	-3.804097e+01	-5.451677e+02
7.000000e-08	-5.360402e-06	-8.313567e-09	-3.794580e+01	-5.442865e+02
8.000000e-08	-5.344844e-06	-8.328009e-09	-3.783567e+01	-5.433177e+02
9.000000e-08	-5.327060e-06	-8.384295e-09	-3.770978e+01	-5.422686e+02
1.000000e-07	-5.307258e-06	-8.338452e-09	-3.756960e+01	-5.411464e+02
1.100000e-07	-5.285495e-06	-8.280429e-09	-3.741554e+01	-5.399573e+02
1.200000e-07	-5.261995e-06	-8.231330e-09	-3.724919e+01	-5.387057e+02
1.300000e-07	-5.236935e-06	-8.078888e-09	-3.707179e+01	-5.373936e+02
1.400000e-07	-5.210238e-06	-8.207673e-09	-3.688280e+01	-5.360202e+02
1.500000e-07	-5.181925e-06	-8.285271e-09	-3.668238e+01	-5.345818e+02
1.600000e-07	-5.152190e-06	-8.056992e-09	-3.647188e+01	-5.330714e+02
1.700000e-07	-5.120903e-06	-8.183679e-09	-3.625041e+01	-5.314801e+02
1.800000e-07	-5.087439e-06	-8.141515e-09	-3.601352e+01	-5.297970e+02
1.900000e-07	-5.052079e-06	-7.935425e-09	-3.576321e+01	-5.280106e+02
2.000000e-07	-5.015293e-06	-8.100408e-09	-3.550280e+01	-5.261099e+02
2.100000e-07	-4.976742e-06	-7.994790e-09	-3.522991e+01	-5.240852e+02
2.200000e-07	-4.936373e-06	-7.836208e-09	-3.494414e+01	-5.219293e+02
2.300000e-07	-4.894068e-06	-7.932285e-09	-3.464467e+01	-5.196378e+02
2.400000e-07	-4.849851e-06	-7.896832e-09	-3.433166e+01	-5.172096e+02
2.500000e-07	-4.803852e-06	-7.890487e-09	-3.400603e+01	-5.146471e+02
2.600000e-07	-4.755903e-06	-7.828566e-09	-3.366661e+01	-5.119549e+02
2.700000e-07	-4.705846e-06	-7.707896e-09	-3.331226e+01	-5.091400e+02
2.800000e-07	-4.653658e-06	-7.706064e-09	-3.294282e+01	-5.062103e+02
2.900000e-07	-4.599597e-06	-7.661303e-09	-3.256013e+01	-5.031739e+02
3.000000e-07	-4.543985e-06	-7.621386e-09	-3.216646e+01	-5.000376e+02
3.100000e-07	-4.486675e-06	-7.598165e-09	-3.176077e+01	-4.968068e+02
3.200000e-07	-4.427521e-06	-7.542007e-09	-3.134202e+01	-4.934842e+02
3.300000e-07	-4.366800e-06	-7.443187e-09	-3.091218e+01	-4.900702e+02
3.400000e-07	-4.304652e-06	-7.376148e-09	-3.047224e+01	-4.865625e+02
3.500000e-07	-4.241171e-06	-7.393055e-09	-3.002287e+01	-4.829566e+02
3.600000e-07	-4.176120e-06	-7.310495e-09	-2.956238e+01	-4.792468e+02
3.700000e-07	-4.109285e-06	-7.213155e-09	-2.908926e+01	-4.754264e+02
3.800000e-07	-4.040888e-06	-7.182623e-09	-2.860508e+01	-4.714887e+02
3.900000e-07	-3.971119e-06	-7.119640e-09	-2.811119e+01	-4.674280e+02
4.000000e-07	-3.900130e-06	-7.052331e-09	-2.760867e+01	-4.632396e+02
4.100000e-07	-3.827907e-06	-6.971319e-09	-2.709741e+01	-4.589208e+02
4.200000e-07	-3.754137e-06	-6.918097e-09	-2.657519e+01	-4.544703e+02
4.300000e-07	-3.678729e-06	-6.845380e-09	-2.604139e+01	-4.498885e+02
4.400000e-07	-3.601890e-06	-6.765175e-09	-2.549745e+01	-4.451767e+02
4.500000e-07	-3.523601e-06	-6.713025e-09	-2.494325e+01	-4.403368e+02
4.600000e-07	-3.443854e-06	-6.651225e-09	-2.437873e+01	-4.353708e+02
4.700000e-07	-3.362874e-06	-6.558466e-09	-2.380548e+01	-4.302801e+02
4.800000e-07	-3.280729e-06	-6.443259e-09	-2.322398e+01	-4.250649e+02
4.900000e-07	-3.197490e-06	-6.372069e-09	-2.263474e+01	-4.197245e+02
5.000000e-07	-3.113280e-06	-6.308497e-09	-2.203863e+01	-4.142563e+02
5.100000e-07	-3.028098e-06	-6.220083e-09	-2.143563e+01	-4.086571e+02
5.200000e-07	-2.941931e-06	-6.126661e-09	-2.082566e+01	-4.029222e+02
5.300000e-07	-2.854778e-06	-6.031718e-09	-2.020871e+01	-3.970468e+02
5.400000e-07	-2.766637e-06	-5.936968e-09	-1.958477e+01	-3.910256e+02
5.500000e-07	-2.677452e-06	-5.846834e-09	-1.895344e+01	-3.848541e+02
5.600000e-07	-2.587099e-06	-5.753845e-09	-1.831384e+01	-3.785279e+02
5.700000e-07	-2.495682e-06	-5.651633e-09	-1.766670e+01	-3.720438e+02
5.800000e-07	-2.403435e-06	-5.542144e-09	-1.701370e+01	-3.653996e+02
5.900000e-07	-2.310378e-06	-5.438139e-09	-1.635496e+01	-3.585936e+02
6.000000e-07	-2.216516e-06	-5.339446e-09	-1.569052e+01	-3.516250e+02
6.100000e-07	-2.121869e-06	-5.232315e-09	-1.502052e+01	-3.444931e+02
6.200000e-07	-2.026467e-06	-5.117697e-09	-1.434517e+01	-3.371970e+02
6.300000e-07	-1.930340e-06	-4.999468e-09	-1.366470e+01	-3.297358e+02
6.400000e-07	-1.833446e-06	-4.884133e-09	-1.297880e+01	-3.221074e+02
6.500000e-07	-1.735772e-06	-4.769954e-09	-1.228737e+01	-3.143091e+02
6.600000e-07	-1.637380e-06	-4.649581e-09	-1.159086e+01	-3.063370e+02
6.700000e-07	-1.538357e-06	-4.518038e-09	-1.088989e+01	-2.981865e+02
6.800000e-07	-1.438770e-06	-4.381761e-09	-1.018492e+01	-2.898518e+02
6.900000e-07	-1.338728e-06	-4.250306e-09	-9.476736e+00	-2.813269e+02
7.000000e-07	-1.238358e-06	-4.122952e-09	-8.766223e+00	-2.726052e+02
7.100000e-07	-1.137633e-06	-3.992421e-09	-8.053203e+00	-2.636801e+02
7.200000e-07	-1.036544e-06	-3.850630e-09	-7.337604e+00	-2.545455e+02
7.300000e-07	-9.351344e-07	-3.703985e-09	-6.619732e+00	-2.451954e+02
7.400000e-07	-8.333669e-07	-3.553838e-09	-5.899329e+00	-2.356246e+02
7.500000e-07	-7.313042e-07	-3.402964e-09	-5.176836e+00	-2.258284e+02
7.600000e-07	-6.290181e-07	-3.251061e-09	-4.452762e+00	-2.158030e+02
7.700000e-07	-5.265301e-07	-3.092538e-09	-3.727259e+00	-2.055450e+02
7.800000e-07	-4.239167e-07	-2.929488e-09	-3.000868e+00	-1.950514e+02
7.900000e-07	-3.212049e-07	-2.763105e-09	-2.273781e+00	-1.843193e+02
8.000000e-07	-2.183996e-07	-2.595012e-09	-1.546031e+00	-1.733457e+02
8.100000e-07	-1.155146e-07	-2.425080e-09	-8.177171e-01	-1.621272e+02
8.200000e-07	-1.255684e-08	-2.250043e-09	-8.888873e-02	-1.506595e+02
8.300000e-07	9.044810e-08	-2.068551e-09	6.402739e-01	-1.389373e+02
8.400000e-07	1.934308e-07	-1.884349e-09	1.369279e+00	-1.269538e+02
8.500000e-07	2.963953e-07	-1.696280e-09	2.098156e+00	-1.147007e+02
8.600000e-07	3.992916e-07	-1.505285e-09	2.826549e+00	-1.021681e+02
8.700000e-07	5.020579e-07	-1.310122e-09	3.554022e+00	-8.934467e+01
8.800000e-07	6.047480e-07	-1.107992e-09	4.280956e+00	-7.621796e+01
8.900000e-07	7.072897e-07	-9.030924e-10	5.006840e+00	-6.277515e+01
9.000000e-07	8.095867e-07	-6.960679e-10	5.730991e+00	-4.900391e+01
9.100000e-07	9.116370e-07	-4.866570e-10	6.453396e+00	-3.489366e+01
9.200000e-07	1.013376e-06	-2.704519e-10	7.173596e+00	-2.043691e+01
9.300000e-07	1.114740e-06	-4.405833e-11	7.891142e+00	-5.630884e+00
9.400000e-07	1.215680e-06	1.903739e-10	8.605692e+00	9.520879e+00
9.500000e-07	1.316180e-06	4.269715e-10	9.317122e+00	2.500705e+01
9.600000e-07	1.416287e-06	6.650301e-10	1.002577e+01	4.080726e+01
9.700000e-07	1.515907e-06	9.092056e-10	1.073097e+01	5.689122e+01
9.800000e-07	1.614931e-06	1.159267e-09	1.143195e+01	7.321845e+01
9.900000e-07	1.713328e-06	1.412400e-09	1.212850e+01	8.973854e+01
1.000000e-06	1.810957e-06	1.665089e-09	1.281960e+01	1.063922e+02
1.010000e-06	1.907732e-06	1.918240e-09	1.350466e+01	1.231127e+02
1.020000e-06	2.003664e-06	2.171343e-09	1.418376e+01	1.398283e+02
1.030000e-06	2.098806e-06	2.424894e-09	1.485726e+01	1.564648e+02
1.040000e-06	2.193260e-06	2.678961e-09	1.552589e+01	1.729485e+02
1.050000e-06	2.286945e-06	2.927785e-09	1.618908e+01	1.892087e+02
1.060000e-06	2.379854e-06	3.169921e-09	1.684677e+01	2.051809e+02
1.070000e-06	2.472064e-06	3.404886e-09	1.749952e+01	2.208086e+02
1.080000e-06	2.563550e-06	3.635739e-09	1.814714e+01	2.360453e+02
1.090000e-06	2.654114e-06	3.860522e-09	1.878823e+01	2.508549e+02
1.100000e-06	2.743509e-06	4.078423e-09	1.942105e+01	2.652123e+02
1.110000e-06	2.831819e-06	4.288176e-09	2.004619e+01	2.791023e+02
1.120000e-06	2.919180e-06	4.490866e-09	2.066461e+01	2.925185e+02
1.130000e-06	3.005581e-06	4.688770e-09	2.127624e+01	3.054615e+02
1.140000e-06	3.091003e-06	4.880184e-09	2.188093e+01	3.179367e+02
1.150000e-06	3.175463e-06	5.063652e-09	2.247882e+01	3.299527e+02
1.160000e-06	3.258994e-06	5.238124e-09	2.307012e+01	3.415190e+02
1.170000e-06	3.341450e-06	5.407856e-09	2.365382e+01	3.526445e+02
1.180000e-06	3.422591e-06	5.571412e-09	2.422822e+01	3.633372e+02
1.190000e-06	3.502408e-06	5.728357e-09	2.479323e+01	3.736031e+02
1.200000e-06	3.580953e-06	5.878178e-09	2.534924e+01	3.834466e+02
1.210000e-06	3.658248e-06	6.021625e-09	2.589641e+01	3.928716e+02
1.220000e-06	3.734350e-06	6.158647e-09	2.643513e+01	4.018818e+02
1.230000e-06	3.808996e-06	6.290659e-09	2.696354e+01	4.104824e+02
1.240000e-06	3.881946e-06	6.418095e-09	2.747994e+01	4.186805e+02
1.250000e-06	3.953368e-06	6.537023e-09	2.798553e+01	4.264867e+02
1.260000e-06	4.023389e-06	6.645259e-09	2.848121e+01	4.339148e+02
1.270000e-06	4.092085e-06	6.747592e-09	2.896750e+01	4.409825e+02
1.280000e-06	4.159474e-06	6.848163e-09	2.944454e+01	4.477102e+02
1.290000e-06	4.225224e-06	6.945214e-09	2.990998e+01	4.541205e+02
1.300000e-06	4.289235e-06	7.037420e-09	3.036311e+01	4.602371e+02
1.310000e-06	4.351752e-06	7.125805e-09	3.080566e+01	4.660833e+02
1.320000e-06	4.412841e-06	7.212472e-09	3.123810e+01	4.716805e+02
1.330000e-06	4.472548e-06	7.296607e-09	3.166076e+01	4.770473e+02
1.340000e-06	4.530658e-06	7.377768e-09	3.207212e+01	4.821983e+02
1.350000e-06	4.586954e-06	7.454662e-09	3.247063e+01	4.871441e+02
1.360000e-06	4.641578e-06	7.523720e-09	3.285731e+01	4.918910e+02
1.370000e-06	4.694543e-06	7.588093e-09	3.323225e+01	4.964412e+02
1.380000e-06	4.745572e-06	7.652852e-09	3.359348e+01	5.007942e+02
1.390000e-06	4.794529e-06	7.717339e-09	3.394004e+01	5.049473e+02
1.400000e-06	4.841644e-06	7.777871e-09	3.427356e+01	5.088967e+02
1.410000e-06	4.887121e-06	7.833252e-09	3.459549e+01	5.126390e+02
1.420000e-06	4.931073e-06	7.885507e-09	3.490662e+01	5.161720e+02
1.430000e-06	4.973188e-06	7.936180e-09	3.520475e+01	5.194949e+02
1.440000e-06	5.013374e-06	7.984119e-09	3.548922e+01	5.226094e+02
1.450000e-06	5.051954e-06	8.028604e-09	3.576232e+01	5.255190e+02
1.460000e-06	5.088886e-06	8.068761e-09	3.602377e+01	5.282293e+02
1.470000e-06	5.124103e-06	8.103444e-09	3.627306e+01	5.307473e+02
1.480000e-06	5.157431e-06	8.135107e-09	3.650899e+01	5.330807e+02
1.490000e-06	5.188847e-06	8.164461e-09	3.673138e+01	5.352375e+02
1.500000e-06	5.218495e-06	8.191007e-09	3.694125e+01	5.372253e+02
1.510000e-06	5.246479e-06	8.216152e-09	3.713935e+01	5.390511e+02
1.520000e-06	5.272576e-06	8.240081e-09	3.732409e+01	5.407208e+02
1.530000e-06	5.296537e-06	8.263370e-09	3.749370e+01	5.422393e+02
1.540000e-06	5.318541e-06	8.284437e-09	3.764947e+01	5.436106e+02
1.550000e-06	5.338802e-06	8.303780e-09	3.779290e+01	5.448383e+02
1.560000e-06	5.357309e-06	8.320276e-09	3.792391e+01	5.459252e+02
1.570000e-06	5.373841e-06	8.333386e-09	3.804093e+01	5.468744e+02
1.580000e-06	5.388353e-06	8.345104e-09	3.814366e+01	5.476888e+02
1.590000e-06	5.400888e-06	8.354726e-09	3.823240e+01	5.483715e+02
1.600000e-06	5.411149e-06	8.362917e-09	3.830503e+01	5.489258e+02
1.610000e-06	5.419184e-06	8.369247e-09	3.836192e+01	5.493549e+02
1.620000e-06	5.425400e-06	8.374737e-09	3.840592e+01	5.496618e+02
1.630000e-06	5.429911e-06	8.380723e-09	3.843785e+01	5.498491e+02
1.640000e-06	5.432504e-06	8.386055e-09	3.845620e+01	5.499191e+02
1.650000e-06	5.433040e-06	8.389937e-09	3.846000e+01	5.498734e+02
1.660000e-06	5.431737e-06	8.385097e-09	3.845077e+01	5.497131e+02
1.670000e-06	5.428740e-06	8.379074e-09	3.842956e+01	5.494395e+02
1.680000e-06	5.424118e-06	8.374083e-09	3.839684e+01	5.490535e+02
1.690000e-06	5.417617e-06	8.366221e-09	3.835082e+01	5.485570e+02
1.700000e-06	5.409186e-06	8.359993e-09	3.829114e+01	5.479526e+02
1.710000e-06	5.399190e-06	8.355866e-09	3.822038e+01	5.472438e+02
1.720000e-06	5.387528e-06	8.362910e-09	3.813782e+01	5.464359e+02
1.730000e-06	5.373887e-06	8.353570e-09	3.804126e+01	5.455348e+02
1.740000e-06	5.358202e-06	8.242731e-09	3.793023e+01	5.445478e+02
1.750000e-06	5.340179e-06	8.239714e-09	3.780265e+01	5.434821e+02
1.760000e-06	5.319381e-06	8.253640e-09	3.765541e+01	5.423447e+02
1.770000e-06	5.296197e-06	8.267142e-09	3.749130e+01	5.411414e+02
1.780000e-06	5.271742e-06	8.396789e-09	3.731818e+01	5.398764e+02
1.790000e-06	5.246619e-06	8.175847e-09	3.714034e+01	5.385509e+02
1.800000e-06	5.220130e-06	8.131670e-09	3.695283e+01	5.371636e+02
1.810000e-06	5.191406e-06	8.273241e-09	3.674949e+01	5.357100e+02
1.820000e-06	5.160800e-06	8.007383e-09	3.653284e+01	5.341827e+02
1.830000e-06	5.128498e-06	8.111682e-09	3.630417e+01	5.325722e+02
1.840000e-06	5.094190e-06	8.208179e-09	3.606131e+01	5.308676e+02
1.850000e-06	5.058285e-06	7.902021e-09	3.580714e+01	5.290572e+02
1.860000e-06	5.020623e-06	8.068772e-09	3.554054e+01	5.271302e+02
1.870000e-06	4.981027e-06	8.076614e-09	3.526024e+01	5.250775e+02
1.880000e-06	4.939849e-06	7.859999e-09	3.496874e+01	5.228923e+02
1.890000e-06	4.896848e-06	7.940531e-09	3.466434e+01	5.205711e+02
1.900000e-06	4.852183e-06	7.776658e-09	3.434816e+01	5.181135e+02
1.910000e-06	4.805736e-06	7.830106e-09	3.401937e+01	5.155222e+02
1.920000e-06	4.757191e-06	7.863626e-09	3.367572e+01	5.128027e+02
1.930000e-06	4.706992e-06	7.651721e-09	3.332037e+01	5.099621e+02
1.940000e-06	4.654985e-06	7.788837e-09	3.295222e+01	5.070085e+02
1.950000e-06	4.600861e-06	7.669601e-09	3.256908e+01	5.039497e+02
1.960000e-06	4.544876e-06	7.522216e-09	3.217277e+01	5.007924e+02
1.970000e-06	4.487230e-06	7.542399e-09	3.176469e+01	4.975413e+02
1.980000e-06	4.428109e-06	7.498847e-09	3.134618e+01	4.941988e+02
1.990000e-06	4.367453e-06	7.519110e-09	3.091681e+01	4.907646e+02
2.000000e-06	4.305025e-06	7.336922e-09	3.047488e+01	4.872359e+02
2.010000e-06	4.240998e-06	7.341376e-09	3.002164e+01	4.836079e+02
2.020000e-06	4.175510e-06	7.335322e-09	2.955806e+01	4.798745e+02
2.030000e-06	4.108548e-06	7.160080e-09	2.908404e+01	4.760291e+02
2.040000e-06	4.040109e-06	7.178340e-09	2.859957e+01	4.720651e+02
2.050000e-06	3.970173e-06	7.121459e-09	2.810450e+01	4.679769e+02
2.060000e-06	3.898717e-06	7.073119e-09	2.759866e+01	4.637604e+02
2.070000e-06	3.825844e-06	6.955128e-09	2.708281e+01	4.594130e+02
2.080000e-06	3.751710e-06	6.874968e-09	2.655802e+01	4.549339e+02
2.090000e-06	3.676186e-06	6.877185e-09	2.602339e+01	4.503236e+02
2.100000e-06	3.599166e-06	6.751088e-09	2.547817e+01	4.455838e+02
2.110000e-06	3.520615e-06	6.669499e-09	2.492211e+01	4.407163e+02
2.120000e-06	3.440754e-06	6.600191e-09	2.435679e+01	4.357231e+02
2.130000e-06	3.359765e-06	6.562184e-09	2.378347e+01	4.306053e+02
2.140000e-06	3.277636e-06	6.472772e-09	2.320209e+01	4.253630e+02
2.150000e-06	3.194454e-06	6.373783e-09	2.261325e+01	4.199950e+02
2.160000e-06	3.110162e-06	6.308357e-09	2.201655e+01	4.144987e+02
2.170000e-06	3.024636e-06	6.198144e-09	2.141113e+01	4.088704e+02
2.180000e-06	2.937817e-06	6.115852e-09	2.079654e+01	4.031054e+02
2.190000e-06	2.849864e-06	6.026367e-09	2.017393e+01	3.971988e+02
2.200000e-06	2.760980e-06	5.951931e-09	1.954473e+01	3.911454e+02
2.210000e-06	2.671172e-06	5.858070e-09	1.890898e+01	3.849406e+02
2.220000e-06	2.580455e-06	5.749164e-09	1.826681e+01	3.785804e+02
2.230000e-06	2.488884e-06	5.652809e-09	1.761858e+01	3.720618e+02
2.240000e-06	2.396497e-06	5.553298e-09	1.696459e+01	3.653826e+02
2.250000e-06	2.303232e-06	5.458642e-09	1.630437e+01	3.585414e+02
2.260000e-06	2.209038e-06	5.348749e-09	1.563758e+01	3.515374e+02
2.270000e-06	2.113903e-06	5.235894e-09	1.496413e+01	3.443700e+02
2.280000e-06	2.017858e-06	5.120908e-09	1.428424e+01	3.370382e+02
2.290000e-06	1.921086e-06	5.009323e-09	1.359920e+01	3.295410e+02
2.300000e-06	1.823770e-06	4.891270e-09	1.291030e+01	3.218760e+02
2.310000e-06	1.725921e-06	4.771917e-09	1.221764e+01	3.140404e+02
2.320000e-06	1.627485e-06	4.652210e-09	1.152082e+01	3.060301e+02
2.330000e-06	1.528562e-06	4.528290e-09	1.082055e+01	2.978402e+02
2.340000e-06	1.429249e-06	4.405620e-09	1.011752e+01	2.894649e+02
2.350000e-06	1.329525e-06	4.277102e-09	9.411588e+00	2.808979e+02
2.360000e-06	1.229387e-06	4.145652e-09	8.702719e+00	2.721328e+02
2.370000e-06	1.128836e-06	4.005206e-09	7.990925e+00	2.631629e+02
2.380000e-06	1.027908e-06	3.858267e-09	7.276469e+00	2.539822e+02
2.390000e-06	9.266355e-07	3.717316e-09	6.559569e+00	2.445848e+02
2.400000e-06	8.249889e-07	3.580020e-09	5.840022e+00	2.349656e+02
2.410000e-06	7.229725e-07	3.434385e-09	5.117857e+00	2.251203e+02
2.420000e-06	6.206376e-07	3.279144e-09	4.393437e+00	2.150449e+02
2.430000e-06	5.180642e-07	3.121287e-09	3.667330e+00	2.047362e+02
2.440000e-06	4.153269e-07	2.966479e-09	2.940062e+00	1.941913e+02
2.450000e-06	3.124498e-07	2.808162e-09	2.211804e+00	1.834073e+02
2.460000e-06	2.093335e-07	2.639223e-09	1.481853e+00	1.723811e+02
2.470000e-06	1.059810e-07	2.466810e-09	7.502297e-01	1.611092e+02
2.480000e-06	2.631352e-09	2.288388e-09	1.862710e-02	1.495871e+02
2.490000e-06	-1.006786e-07	2.105033e-09	-7.126944e-01	1.378091e+02
2.500000e-06	-2.039556e-07	1.923614e-09	-1.443784e+00	1.257681e+02
2.510000e-06	-3.072171e-07	1.743258e-09	-2.174762e+00	1.134556e+02
2.520000e-06	-4.104690e-07	1.556549e-09	-2.905673e+00	1.008613e+02
2.530000e-06	-5.135031e-07	1.358863e-09	-3.635042e+00	8.797351e+01
2.540000e-06	-6.163160e-07	1.157584e-09	-4.362845e+00	7.477973e+01
2.550000e-06	-7.188621e-07	9.525180e-10	-5.088760e+00	6.126713e+01
2.560000e-06	-8.210177e-07	7.366282e-10	-5.811910e+00	4.742364e+01
2.570000e-06	-9.227763e-07	5.129038e-10	-6.532250e+00	3.323922e+01
2.580000e-06	-1.024092e-06	2.878356e-10	-7.249452e+00	1.870725e+01
2.590000e-06	-1.125014e-06	6.097332e-11	-7.963875e+00	3.826188e+00
2.600000e-06	-1.225533e-06	-1.698947e-10	-8.675435e+00	-1.139889e+01
2.610000e-06	-1.325540e-06	-4.051692e-10	-9.383379e+00	-2.695482e+01
2.620000e-06	-1.425021e-06	-6.464286e-10	-1.008760e+01	-4.281914e+01
2.630000e-06	-1.524033e-06	-8.936743e-10	-1.078849e+01	-5.895940e+01
2.640000e-06	-1.622569e-06	-1.145151e-09	-1.148602e+01	-7.533293e+01
2.650000e-06	-1.720495e-06	-1.397809e-09	-1.217923e+01	-9.188732e+01
2.660000e-06	-1.817805e-06	-1.651178e-09	-1.286808e+01	-1.085615e+02
2.670000e-06	-1.914552e-06	-1.907985e-09	-1.355294e+01	-1.252875e+02
2.680000e-06	-2.010742e-06	-2.164146e-09	-1.423386e+01	-1.419929e+02
2.690000e-06	-2.106328e-06	-2.418272e-09	-1.491051e+01	-1.586033e+02
2.700000e-06	-2.201142e-06	-2.668511e-09	-1.558169e+01	-1.750452e+02
2.710000e-06	-2.294953e-06	-2.913532e-09	-1.624577e+01	-1.912493e+02
2.720000e-06	-2.387725e-06	-3.154621e-09	-1.690249e+01	-2.071525e+02
2.730000e-06	-2.479609e-06	-3.392061e-09	-1.755293e+01	-2.227004e+02
2.740000e-06	-2.570625e-06	-3.624883e-09	-1.819723e+01	-2.378487e+02
2.750000e-06	-2.660722e-06	-3.850727e-09	-1.883501e+01	-2.525636e+02
2.760000e-06	-2.749854e-06	-4.072342e-09	-1.946597e+01	-2.668222e+02
2.770000e-06	-2.838116e-06	-4.288113e-09	-2.009077e+01	-2.806114e+02
2.780000e-06	-2.925601e-06	-4.494230e-09	-2.071007e+01	-2.939263e+02
2.790000e-06	-3.012071e-06	-4.690660e-09	-2.132218e+01	-3.067688e+02
2.800000e-06	-3.097274e-06	-4.879465e-09	-2.192532e+01	-3.191453e+02
2.810000e-06	-3.181263e-06	-5.059302e-09	-2.251987e+01	-3.310646e+02
2.820000e-06	-3.264221e-06	-5.231147e-09	-2.310712e+01	-3.425361e+02
2.830000e-06	-3.346187e-06	-5.399135e-09	-2.368736e+01	-3.535687e+02
2.840000e-06	-3.427117e-06	-5.560853e-09	-2.426025e+01	-3.641699e+02
2.850000e-06	-3.506889e-06	-5.713606e-09	-2.482495e+01	-3.743453e+02
2.860000e-06	-3.585200e-06	-5.860041e-09	-2.537930e+01	-3.840993e+02
2.870000e-06	-3.661906e-06	-6.003996e-09	-2.592230e+01	-3.934355e+02
2.880000e-06	-3.737155e-06	-6.143194e-09	-2.645498e+01	-4.023578e+02
2.890000e-06	-3.811028e-06	-6.274180e-09	-2.697792e+01	-4.108718e+02
2.900000e-06	-3.883625e-06	-6.401771e-09	-2.749183e+01	-4.189854e+02
2.910000e-06	-3.954894e-06	-6.526783e-09	-2.799633e+01	-4.267097e+02
2.920000e-06	-4.024501e-06	-6.641214e-09	-2.848908e+01	-4.340594e+02
2.930000e-06	-4.092490e-06	-6.746167e-09	-2.897037e+01	-4.410528e+02
2.940000e-06	-4.159102e-06	-6.847176e-09	-2.944191e+01	-4.477109e+02
