# Temperatura_=_66.17
# Concentracion g/m^3_=_15000.0
# C_Vs_to_Am_M_A/Vsm_=_65563218390.804596
# pendiente_HvsI_1/m_=_3716.3
# ordenada_HvsI_A/m_=_1297.0
# frecuencia_Hz_=_301596.4874987708

Tiempo_(s)	Campo_(V.s)	Magnetizacion_(V.s)	Campo_(kA/m)	Magnetizacion_(A/m)
0.000000e+00	-5.413818e-06	-9.093114e-09	-3.834017e+01	-5.935358e+02
1.000000e-08	-5.411237e-06	-9.089431e-09	-3.832190e+01	-5.933035e+02
2.000000e-08	-5.406807e-06	-9.081870e-09	-3.829052e+01	-5.929417e+02
3.000000e-08	-5.400739e-06	-9.075476e-09	-3.824755e+01	-5.924470e+02
4.000000e-08	-5.393106e-06	-9.064984e-09	-3.819349e+01	-5.918176e+02
5.000000e-08	-5.383578e-06	-9.048204e-09	-3.812601e+01	-5.910548e+02
6.000000e-08	-5.372005e-06	-9.028494e-09	-3.804406e+01	-5.901629e+02
7.000000e-08	-5.358599e-06	-9.002331e-09	-3.794912e+01	-5.891495e+02
8.000000e-08	-5.343097e-06	-9.013825e-09	-3.783933e+01	-5.880251e+02
9.000000e-08	-5.325345e-06	-9.057077e-09	-3.771362e+01	-5.868025e+02
1.000000e-07	-5.305525e-06	-9.009501e-09	-3.757325e+01	-5.854950e+02
1.100000e-07	-5.283739e-06	-8.952733e-09	-3.741897e+01	-5.841153e+02
1.200000e-07	-5.260217e-06	-8.905638e-09	-3.725238e+01	-5.826738e+02
1.300000e-07	-5.235152e-06	-8.777307e-09	-3.707488e+01	-5.811771e+02
1.400000e-07	-5.208482e-06	-8.882386e-09	-3.688601e+01	-5.796270e+02
1.500000e-07	-5.180204e-06	-8.931079e-09	-3.668574e+01	-5.780202e+02
1.600000e-07	-5.150468e-06	-8.724957e-09	-3.647515e+01	-5.763479e+02
1.700000e-07	-5.119191e-06	-8.830162e-09	-3.625365e+01	-5.745967e+02
1.800000e-07	-5.085762e-06	-8.786818e-09	-3.601691e+01	-5.727499e+02
1.900000e-07	-5.050424e-06	-8.612537e-09	-3.576665e+01	-5.707891e+02
2.000000e-07	-5.013665e-06	-8.767744e-09	-3.550632e+01	-5.686958e+02
2.100000e-07	-4.975146e-06	-8.675894e-09	-3.523354e+01	-5.664538e+02
2.200000e-07	-4.934743e-06	-8.519845e-09	-3.494741e+01	-5.640502e+02
2.300000e-07	-4.892388e-06	-8.575569e-09	-3.464745e+01	-5.614769e+02
2.400000e-07	-4.848160e-06	-8.518500e-09	-3.433423e+01	-5.587311e+02
2.500000e-07	-4.802217e-06	-8.494600e-09	-3.400887e+01	-5.558154e+02
2.600000e-07	-4.754239e-06	-8.456356e-09	-3.366909e+01	-5.527370e+02
2.700000e-07	-4.704092e-06	-8.363654e-09	-3.331396e+01	-5.495067e+02
2.800000e-07	-4.651912e-06	-8.326845e-09	-3.294443e+01	-5.461371e+02
2.900000e-07	-4.597881e-06	-8.259709e-09	-3.256178e+01	-5.426414e+02
3.000000e-07	-4.542324e-06	-8.222192e-09	-3.216833e+01	-5.390313e+02
3.100000e-07	-4.485080e-06	-8.187468e-09	-3.176293e+01	-5.353160e+02
3.200000e-07	-4.425968e-06	-8.126101e-09	-3.134431e+01	-5.315010e+02
3.300000e-07	-4.365324e-06	-8.032577e-09	-3.091484e+01	-5.275881e+02
3.400000e-07	-4.303262e-06	-7.950736e-09	-3.047532e+01	-5.235751e+02
3.500000e-07	-4.239764e-06	-7.946371e-09	-3.002563e+01	-5.194567e+02
3.600000e-07	-4.174714e-06	-7.869889e-09	-2.956495e+01	-5.152254e+02
3.700000e-07	-4.107979e-06	-7.770432e-09	-2.909234e+01	-5.108727e+02
3.800000e-07	-4.039706e-06	-7.717212e-09	-2.860884e+01	-5.063899e+02
3.900000e-07	-3.970011e-06	-7.640663e-09	-2.811527e+01	-5.017701e+02
4.000000e-07	-3.899059e-06	-7.567036e-09	-2.761278e+01	-4.970079e+02
4.100000e-07	-3.826862e-06	-7.489232e-09	-2.710149e+01	-4.921004e+02
4.200000e-07	-3.753144e-06	-7.427807e-09	-2.657943e+01	-4.870473e+02
4.300000e-07	-3.677822e-06	-7.335078e-09	-2.604601e+01	-4.818500e+02
4.400000e-07	-3.601039e-06	-7.237006e-09	-2.550224e+01	-4.765114e+02
4.500000e-07	-3.522759e-06	-7.168291e-09	-2.494786e+01	-4.710347e+02
4.600000e-07	-3.442975e-06	-7.101256e-09	-2.438284e+01	-4.654230e+02
4.700000e-07	-3.362043e-06	-7.014976e-09	-2.380969e+01	-4.596780e+02
4.800000e-07	-3.280012e-06	-6.900416e-09	-2.322875e+01	-4.538001e+02
4.900000e-07	-3.196832e-06	-6.809565e-09	-2.263967e+01	-4.477876e+02
5.000000e-07	-3.112653e-06	-6.724613e-09	-2.204353e+01	-4.416373e+02
5.100000e-07	-3.027534e-06	-6.625324e-09	-2.144073e+01	-4.353444e+02
5.200000e-07	-2.941448e-06	-6.522517e-09	-2.083107e+01	-4.289036e+02
5.300000e-07	-2.854354e-06	-6.418464e-09	-2.021428e+01	-4.223091e+02
5.400000e-07	-2.766313e-06	-6.310999e-09	-1.959078e+01	-4.155561e+02
5.500000e-07	-2.677213e-06	-6.204234e-09	-1.895979e+01	-4.086405e+02
5.600000e-07	-2.586925e-06	-6.099725e-09	-1.832037e+01	-4.015597e+02
5.700000e-07	-2.495620e-06	-5.992109e-09	-1.767376e+01	-3.943124e+02
5.800000e-07	-2.403452e-06	-5.872958e-09	-1.702103e+01	-3.868987e+02
5.900000e-07	-2.310402e-06	-5.751790e-09	-1.636206e+01	-3.793192e+02
6.000000e-07	-2.216533e-06	-5.636955e-09	-1.569729e+01	-3.715748e+02
6.100000e-07	-2.121966e-06	-5.520787e-09	-1.502757e+01	-3.636656e+02
6.200000e-07	-2.026727e-06	-5.399813e-09	-1.435310e+01	-3.555909e+02
6.300000e-07	-1.930746e-06	-5.269828e-09	-1.367337e+01	-3.473483e+02
6.400000e-07	-1.833930e-06	-5.137192e-09	-1.298773e+01	-3.389337e+02
6.500000e-07	-1.736261e-06	-5.004241e-09	-1.229605e+01	-3.303412e+02
6.600000e-07	-1.637845e-06	-4.868969e-09	-1.159907e+01	-3.215635e+02
6.700000e-07	-1.538820e-06	-4.730143e-09	-1.089779e+01	-3.125925e+02
6.800000e-07	-1.439298e-06	-4.587554e-09	-1.019298e+01	-3.034197e+02
6.900000e-07	-1.339361e-06	-4.441852e-09	-9.485236e+00	-2.940371e+02
7.000000e-07	-1.239070e-06	-4.295029e-09	-8.774981e+00	-2.844377e+02
7.100000e-07	-1.138414e-06	-4.146946e-09	-8.062148e+00	-2.746159e+02
7.200000e-07	-1.037346e-06	-3.991839e-09	-7.346388e+00	-2.645680e+02
7.300000e-07	-9.359346e-07	-3.832515e-09	-6.628205e+00	-2.542919e+02
7.400000e-07	-8.342429e-07	-3.668849e-09	-5.908033e+00	-2.437869e+02
7.500000e-07	-7.322318e-07	-3.502331e-09	-5.185600e+00	-2.330536e+02
7.600000e-07	-6.299527e-07	-3.333901e-09	-4.461269e+00	-2.220928e+02
7.700000e-07	-5.275055e-07	-3.162679e-09	-3.735746e+00	-2.109050e+02
7.800000e-07	-4.248710e-07	-2.988587e-09	-3.008899e+00	-1.994897e+02
7.900000e-07	-3.220832e-07	-2.809420e-09	-2.280964e+00	-1.878450e+02
8.000000e-07	-2.192150e-07	-2.624898e-09	-1.552461e+00	-1.759667e+02
8.100000e-07	-1.162642e-07	-2.437810e-09	-8.233726e-01	-1.638484e+02
8.200000e-07	-1.322469e-08	-2.250468e-09	-9.365607e-02	-1.514812e+02
8.300000e-07	8.981453e-08	-2.060209e-09	6.360585e-01	-1.388538e+02
8.400000e-07	1.927759e-07	-1.865200e-09	1.365221e+00	-1.259529e+02
8.500000e-07	2.957025e-07	-1.663241e-09	2.094139e+00	-1.127636e+02
8.600000e-07	3.986101e-07	-1.458743e-09	2.822921e+00	-9.926987e+01
8.700000e-07	5.014102e-07	-1.248961e-09	3.550942e+00	-8.545517e+01
8.800000e-07	6.040668e-07	-1.031769e-09	4.277947e+00	-7.130353e+01
8.900000e-07	7.065442e-07	-8.088204e-10	5.003683e+00	-5.680032e+01
9.000000e-07	8.087980e-07	-5.799677e-10	5.727835e+00	-4.193326e+01
9.100000e-07	9.107734e-07	-3.491762e-10	6.450016e+00	-2.669366e+01
9.200000e-07	1.012398e-06	-1.132294e-10	7.169710e+00	-1.107767e+01
9.300000e-07	1.113682e-06	1.299040e-10	7.886998e+00	4.912445e+00
9.400000e-07	1.214554e-06	3.801656e-10	8.601361e+00	2.126700e+01
9.500000e-07	1.315032e-06	6.344872e-10	9.312938e+00	3.796770e+01
9.600000e-07	1.415160e-06	8.916890e-10	1.002203e+01	5.498673e+01
9.700000e-07	1.514798e-06	1.153279e-09	1.072766e+01	7.228616e+01
9.800000e-07	1.613816e-06	1.418185e-09	1.142890e+01	8.981785e+01
9.900000e-07	1.712129e-06	1.686020e-09	1.212515e+01	1.075240e+02
1.000000e-06	1.809629e-06	1.955095e-09	1.281563e+01	1.253382e+02
1.010000e-06	1.906356e-06	2.225307e-09	1.350064e+01	1.431872e+02
1.020000e-06	2.002340e-06	2.496058e-09	1.418039e+01	1.609934e+02
1.030000e-06	2.097581e-06	2.767453e-09	1.485488e+01	1.786775e+02
1.040000e-06	2.192109e-06	3.035686e-09	1.552432e+01	1.961615e+02
1.050000e-06	2.285846e-06	3.295076e-09	1.618816e+01	2.133719e+02
1.060000e-06	2.378789e-06	3.548032e-09	1.684637e+01	2.302423e+02
1.070000e-06	2.471034e-06	3.797194e-09	1.749964e+01	2.467159e+02
1.080000e-06	2.562552e-06	4.041963e-09	1.814777e+01	2.627473e+02
1.090000e-06	2.653082e-06	4.278115e-09	1.878889e+01	2.783030e+02
1.100000e-06	2.742458e-06	4.505795e-09	1.942184e+01	2.933615e+02
1.110000e-06	2.830742e-06	4.725674e-09	2.004706e+01	3.079126e+02
1.120000e-06	2.918026e-06	4.939789e-09	2.066520e+01	3.219555e+02
1.130000e-06	3.004398e-06	5.148812e-09	2.127688e+01	3.354968e+02
1.140000e-06	3.089842e-06	5.349816e-09	2.188198e+01	3.485480e+02
1.150000e-06	3.174274e-06	5.541162e-09	2.247992e+01	3.611232e+02
1.160000e-06	3.257743e-06	5.723379e-09	2.307104e+01	3.732366e+02
1.170000e-06	3.340138e-06	5.900368e-09	2.365456e+01	3.849010e+02
1.180000e-06	3.421293e-06	6.071546e-09	2.422929e+01	3.961266e+02
1.190000e-06	3.501176e-06	6.235278e-09	2.479501e+01	4.069209e+02
1.200000e-06	3.579732e-06	6.391014e-09	2.535134e+01	4.172885e+02
1.210000e-06	3.656983e-06	6.542269e-09	2.589843e+01	4.272321e+02
1.220000e-06	3.732941e-06	6.689799e-09	2.643636e+01	4.367541e+02
1.230000e-06	3.807399e-06	6.831369e-09	2.696366e+01	4.458576e+02
1.240000e-06	3.880191e-06	6.965698e-09	2.747916e+01	4.545477e+02
1.250000e-06	3.951541e-06	7.091694e-09	2.798446e+01	4.628329e+02
1.260000e-06	4.021560e-06	7.208668e-09	2.848033e+01	4.707256e+02
1.270000e-06	4.090178e-06	7.319946e-09	2.896628e+01	4.782421e+02
1.280000e-06	4.157410e-06	7.427929e-09	2.944240e+01	4.854022e+02
1.290000e-06	4.223039e-06	7.531204e-09	2.990719e+01	4.922282e+02
1.300000e-06	4.287019e-06	7.629704e-09	3.036029e+01	4.987437e+02
1.310000e-06	4.349493e-06	7.722794e-09	3.080272e+01	5.049723e+02
1.320000e-06	4.410568e-06	7.813115e-09	3.123525e+01	5.109357e+02
1.330000e-06	4.470327e-06	7.900989e-09	3.165845e+01	5.166529e+02
1.340000e-06	4.528414e-06	7.986036e-09	3.206983e+01	5.221391e+02
1.350000e-06	4.584638e-06	8.067827e-09	3.246799e+01	5.274052e+02
1.360000e-06	4.639169e-06	8.143358e-09	3.285418e+01	5.324583e+02
1.370000e-06	4.692037e-06	8.213691e-09	3.322859e+01	5.373014e+02
1.380000e-06	4.743026e-06	8.281992e-09	3.358969e+01	5.419352e+02
1.390000e-06	4.791983e-06	8.350153e-09	3.393639e+01	5.463584e+02
1.400000e-06	4.839068e-06	8.414441e-09	3.426984e+01	5.505691e+02
1.410000e-06	4.884542e-06	8.474039e-09	3.459189e+01	5.545658e+02
1.420000e-06	4.928553e-06	8.530519e-09	3.490357e+01	5.583481e+02
1.430000e-06	4.970736e-06	8.585250e-09	3.520231e+01	5.619170e+02
1.440000e-06	5.010958e-06	8.638135e-09	3.548716e+01	5.652754e+02
1.450000e-06	5.049477e-06	8.687070e-09	3.575994e+01	5.684273e+02
1.460000e-06	5.086342e-06	8.731522e-09	3.602102e+01	5.713780e+02
1.470000e-06	5.121507e-06	8.769892e-09	3.627005e+01	5.741331e+02
1.480000e-06	5.154694e-06	8.805209e-09	3.650508e+01	5.766981e+02
1.490000e-06	5.185987e-06	8.839088e-09	3.672670e+01	5.790778e+02
1.500000e-06	5.215657e-06	8.869413e-09	3.693682e+01	5.812766e+02
1.510000e-06	5.243701e-06	8.898490e-09	3.713542e+01	5.832977e+02
1.520000e-06	5.269759e-06	8.925531e-09	3.731996e+01	5.851439e+02
1.530000e-06	5.293683e-06	8.950727e-09	3.748939e+01	5.868178e+02
1.540000e-06	5.315731e-06	8.974063e-09	3.764553e+01	5.883222e+02
1.550000e-06	5.336090e-06	8.993412e-09	3.778971e+01	5.896605e+02
1.560000e-06	5.354692e-06	9.010550e-09	3.792145e+01	5.908375e+02
1.570000e-06	5.371236e-06	9.024500e-09	3.803861e+01	5.918587e+02
1.580000e-06	5.385702e-06	9.036142e-09	3.814106e+01	5.927308e+02
1.590000e-06	5.398196e-06	9.047397e-09	3.822954e+01	5.934612e+02
1.600000e-06	5.408553e-06	9.057267e-09	3.830289e+01	5.940571e+02
1.610000e-06	5.416806e-06	9.065597e-09	3.836133e+01	5.945252e+02
1.620000e-06	5.423154e-06	9.071456e-09	3.840629e+01	5.948707e+02
1.630000e-06	5.427672e-06	9.076254e-09	3.843828e+01	5.950969e+02
1.640000e-06	5.430230e-06	9.079573e-09	3.845640e+01	5.952048e+02
1.650000e-06	5.430738e-06	9.081874e-09	3.846000e+01	5.951933e+02
1.660000e-06	5.429427e-06	9.078903e-09	3.845072e+01	5.950596e+02
1.670000e-06	5.426427e-06	9.074571e-09	3.842947e+01	5.947995e+02
1.680000e-06	5.421752e-06	9.069658e-09	3.839636e+01	5.944091e+02
1.690000e-06	5.415173e-06	9.060604e-09	3.834977e+01	5.938852e+02
1.700000e-06	5.406774e-06	9.050932e-09	3.829029e+01	5.932268e+02
1.710000e-06	5.396853e-06	9.042994e-09	3.822003e+01	5.924355e+02
1.720000e-06	5.385250e-06	9.045492e-09	3.813786e+01	5.915164e+02
1.730000e-06	5.371655e-06	9.032994e-09	3.804158e+01	5.904779e+02
1.740000e-06	5.355931e-06	8.936293e-09	3.793022e+01	5.893310e+02
1.750000e-06	5.337885e-06	8.932887e-09	3.780243e+01	5.880887e+02
1.760000e-06	5.317158e-06	8.940156e-09	3.765564e+01	5.867644e+02
1.770000e-06	5.294074e-06	8.944344e-09	3.749215e+01	5.853704e+02
1.780000e-06	5.269653e-06	9.040990e-09	3.731921e+01	5.839163e+02
1.790000e-06	5.244539e-06	8.848997e-09	3.714135e+01	5.824078e+02
1.800000e-06	5.218029e-06	8.814227e-09	3.695362e+01	5.808457e+02
1.810000e-06	5.189219e-06	8.931131e-09	3.674958e+01	5.792254e+02
1.820000e-06	5.158600e-06	8.718255e-09	3.653274e+01	5.775371e+02
1.830000e-06	5.126386e-06	8.799914e-09	3.630461e+01	5.757666e+02
1.840000e-06	5.092177e-06	8.846891e-09	3.606234e+01	5.738966e+02
1.850000e-06	5.056304e-06	8.580763e-09	3.580829e+01	5.719086e+02
1.860000e-06	5.018596e-06	8.714002e-09	3.554125e+01	5.697844e+02
1.870000e-06	4.978959e-06	8.699122e-09	3.526054e+01	5.675083e+02
1.880000e-06	4.937766e-06	8.516236e-09	3.496882e+01	5.650685e+02
1.890000e-06	4.894749e-06	8.591314e-09	3.466418e+01	5.624579e+02
1.900000e-06	4.850048e-06	8.442384e-09	3.434761e+01	5.596750e+02
1.910000e-06	4.803559e-06	8.442096e-09	3.401837e+01	5.567233e+02
1.920000e-06	4.755040e-06	8.436975e-09	3.367477e+01	5.536110e+02
1.930000e-06	4.704916e-06	8.275855e-09	3.331979e+01	5.503494e+02
1.940000e-06	4.653007e-06	8.382319e-09	3.295218e+01	5.469514e+02
1.950000e-06	4.598984e-06	8.256335e-09	3.256960e+01	5.434300e+02
1.960000e-06	4.542996e-06	8.134385e-09	3.217309e+01	5.397963e+02
1.970000e-06	4.485304e-06	8.125024e-09	3.176452e+01	5.360589e+02
1.980000e-06	4.426237e-06	8.060587e-09	3.134621e+01	5.322226e+02
1.990000e-06	4.365634e-06	8.071840e-09	3.091703e+01	5.282882e+02
2.000000e-06	4.303302e-06	7.906946e-09	3.047560e+01	5.242528e+02
2.010000e-06	4.239384e-06	7.896014e-09	3.002293e+01	5.201106e+02
2.020000e-06	4.173936e-06	7.868036e-09	2.955944e+01	5.158537e+02
2.030000e-06	4.107065e-06	7.705418e-09	2.908586e+01	5.114734e+02
2.040000e-06	4.038750e-06	7.706432e-09	2.860207e+01	5.069615e+02
2.050000e-06	3.968875e-06	7.633241e-09	2.810721e+01	5.023112e+02
2.060000e-06	3.897492e-06	7.567795e-09	2.760169e+01	4.975176e+02
2.070000e-06	3.824736e-06	7.452133e-09	2.708644e+01	4.925786e+02
2.080000e-06	3.750689e-06	7.374907e-09	2.656204e+01	4.874941e+02
2.090000e-06	3.675274e-06	7.360889e-09	2.602796e+01	4.822659e+02
2.100000e-06	3.598316e-06	7.239206e-09	2.548295e+01	4.768970e+02
2.110000e-06	3.519717e-06	7.146035e-09	2.492632e+01	4.713909e+02
2.120000e-06	3.439803e-06	7.054292e-09	2.436038e+01	4.657501e+02
2.130000e-06	3.358844e-06	6.993329e-09	2.378704e+01	4.599764e+02
2.140000e-06	3.276708e-06	6.894130e-09	2.320535e+01	4.540695e+02
2.150000e-06	3.193512e-06	6.794975e-09	2.261617e+01	4.480274e+02
2.160000e-06	3.109376e-06	6.724310e-09	2.202032e+01	4.418467e+02
2.170000e-06	3.023996e-06	6.610316e-09	2.141567e+01	4.355222e+02
2.180000e-06	2.937228e-06	6.509785e-09	2.080119e+01	4.290486e+02
2.190000e-06	2.849377e-06	6.407034e-09	2.017903e+01	4.224202e+02
2.200000e-06	2.760584e-06	6.324149e-09	1.955021e+01	4.156323e+02
2.210000e-06	2.670812e-06	6.219154e-09	1.891445e+01	4.086811e+02
2.220000e-06	2.580095e-06	6.096785e-09	1.827200e+01	4.015643e+02
2.230000e-06	2.488529e-06	5.987447e-09	1.762354e+01	3.942810e+02
2.240000e-06	2.396233e-06	5.878325e-09	1.696991e+01	3.868314e+02
2.250000e-06	2.303068e-06	5.769639e-09	1.631012e+01	3.792161e+02
2.260000e-06	2.208945e-06	5.647169e-09	1.564355e+01	3.714360e+02
2.270000e-06	2.113879e-06	5.523930e-09	1.497030e+01	3.634912e+02
2.280000e-06	2.017930e-06	5.399237e-09	1.429080e+01	3.553804e+02
2.290000e-06	1.921287e-06	5.275667e-09	1.360638e+01	3.471011e+02
2.300000e-06	1.824067e-06	5.149562e-09	1.291788e+01	3.386485e+02
2.310000e-06	1.726301e-06	5.022635e-09	1.222551e+01	3.300166e+02
2.320000e-06	1.627923e-06	4.887615e-09	1.152881e+01	3.211979e+02
2.330000e-06	1.529021e-06	4.744740e-09	1.082839e+01	3.121840e+02
2.340000e-06	1.429700e-06	4.605292e-09	1.012501e+01	3.029666e+02
2.350000e-06	1.330008e-06	4.466458e-09	9.418996e+00	2.935377e+02
2.360000e-06	1.229980e-06	4.326942e-09	8.710608e+00	2.838907e+02
2.370000e-06	1.129612e-06	4.176548e-09	7.999812e+00	2.740204e+02
2.380000e-06	1.028855e-06	4.018226e-09	7.286257e+00	2.639233e+02
2.390000e-06	9.276397e-07	3.862360e-09	6.569461e+00	2.535978e+02
2.400000e-06	8.260150e-07	3.708036e-09	5.849764e+00	2.430435e+02
2.410000e-06	7.240245e-07	3.547851e-09	5.127477e+00	2.322611e+02
2.420000e-06	6.216721e-07	3.379157e-09	4.402626e+00	2.212512e+02
2.430000e-06	5.190392e-07	3.205689e-09	3.675789e+00	2.100144e+02
2.440000e-06	4.162001e-07	3.033568e-09	2.947492e+00	1.985499e+02
2.450000e-06	3.132056e-07	2.860003e-09	2.218094e+00	1.868552e+02
2.460000e-06	2.100239e-07	2.680861e-09	1.487370e+00	1.749257e+02
2.470000e-06	1.066624e-07	2.497371e-09	7.553738e-01	1.627546e+02
2.480000e-06	3.279353e-09	2.304760e-09	2.322409e-02	1.503323e+02
2.490000e-06	-1.000612e-07	2.106966e-09	-7.086244e-01	1.376472e+02
2.500000e-06	-2.033421e-07	1.909909e-09	-1.440050e+00	1.246855e+02
2.510000e-06	-3.065626e-07	1.712358e-09	-2.171049e+00	1.114320e+02
2.520000e-06	-4.097170e-07	1.508684e-09	-2.901579e+00	9.787045e+01
2.530000e-06	-5.126960e-07	1.294848e-09	-3.630867e+00	8.398452e+01
2.540000e-06	-6.155098e-07	1.077366e-09	-4.358985e+00	6.975838e+01
2.550000e-06	-7.180711e-07	8.562544e-10	-5.085315e+00	5.517778e+01
2.560000e-06	-8.202316e-07	6.254024e-10	-5.808807e+00	4.023113e+01
2.570000e-06	-9.219115e-07	3.880703e-10	-6.528895e+00	2.491068e+01
2.580000e-06	-1.023059e-06	1.478252e-10	-7.245210e+00	9.213751e+00
2.590000e-06	-1.123753e-06	-9.636068e-11	-7.958320e+00	-6.855897e+00
2.600000e-06	-1.224044e-06	-3.457843e-10	-8.668573e+00	-2.328682e+01
2.610000e-06	-1.323934e-06	-5.983578e-10	-9.375982e+00	-4.005876e+01
2.620000e-06	-1.423421e-06	-8.565247e-10	-1.008054e+01	-5.714176e+01
2.630000e-06	-1.522491e-06	-1.124182e-09	-1.078214e+01	-7.449570e+01
2.640000e-06	-1.621067e-06	-1.397301e-09	-1.148025e+01	-9.207029e+01
2.650000e-06	-1.719037e-06	-1.671908e-09	-1.217407e+01	-1.098058e+02
2.660000e-06	-1.816320e-06	-1.946319e-09	-1.286302e+01	-1.276341e+02
2.670000e-06	-1.912981e-06	-2.220802e-09	-1.354756e+01	-1.454810e+02
2.680000e-06	-2.009123e-06	-2.493511e-09	-1.422843e+01	-1.632680e+02
2.690000e-06	-2.104708e-06	-2.763812e-09	-1.490535e+01	-1.809161e+02
2.700000e-06	-2.199512e-06	-3.031510e-09	-1.557675e+01	-1.983478e+02
2.710000e-06	-2.293276e-06	-3.293029e-09	-1.624077e+01	-2.154909e+02
2.720000e-06	-2.386005e-06	-3.547835e-09	-1.689747e+01	-2.322810e+02
2.730000e-06	-2.477829e-06	-3.796788e-09	-1.754776e+01	-2.486637e+02
2.740000e-06	-2.568830e-06	-4.039876e-09	-1.819222e+01	-2.645959e+02
2.750000e-06	-2.658935e-06	-4.276939e-09	-1.883034e+01	-2.800467e+02
2.760000e-06	-2.748045e-06	-4.506130e-09	-1.946141e+01	-2.949974e+02
2.770000e-06	-2.836303e-06	-4.728393e-09	-2.008644e+01	-3.094397e+02
2.780000e-06	-2.923739e-06	-4.945007e-09	-2.070565e+01	-3.233747e+02
2.790000e-06	-3.010104e-06	-5.154756e-09	-2.131728e+01	-3.368102e+02
2.800000e-06	-3.095226e-06	-5.356988e-09	-2.192011e+01	-3.497586e+02
2.810000e-06	-3.179202e-06	-5.547941e-09	-2.251482e+01	-3.622340e+02
2.820000e-06	-3.262144e-06	-5.728233e-09	-2.310221e+01	-3.742505e+02
2.830000e-06	-3.343981e-06	-5.902530e-09	-2.368177e+01	-3.858204e+02
2.840000e-06	-3.424710e-06	-6.070114e-09	-2.425349e+01	-3.969535e+02
2.850000e-06	-3.504364e-06	-6.230294e-09	-2.481760e+01	-4.076564e+02
2.860000e-06	-3.582665e-06	-6.385248e-09	-2.537211e+01	-4.179332e+02
2.870000e-06	-3.659416e-06	-6.535075e-09	-2.591566e+01	-4.277867e+02
2.880000e-06	-3.734688e-06	-6.679955e-09	-2.644873e+01	-4.372190e+02
2.890000e-06	-3.808541e-06	-6.818778e-09	-2.697175e+01	-4.462337e+02
2.900000e-06	-3.881112e-06	-6.953044e-09	-2.748569e+01	-4.548365e+02
2.910000e-06	-3.952327e-06	-7.083169e-09	-2.799003e+01	-4.630368e+02
2.920000e-06	-4.021924e-06	-7.203849e-09	-2.848291e+01	-4.708478e+02
2.930000e-06	-4.090023e-06	-7.316223e-09	-2.896517e+01	-4.782865e+02
2.940000e-06	-4.156698e-06	-7.424354e-09	-2.943736e+01	-4.853733e+02
