# Temperatura_=_53.99
# Concentracion g/m^3_=_15000.0
# C_Vs_to_Am_M_A/Vsm_=_65563218390.804596
# pendiente_HvsI_1/m_=_3716.3
# ordenada_HvsI_A/m_=_1297.0
# frecuencia_Hz_=_301590.9745101023

Tiempo_(s)	Campo_(V.s)	Magnetizacion_(V.s)	Campo_(kA/m)	Magnetizacion_(A/m)
0.000000e+00	-5.408659e-06	-8.595460e-09	-3.834252e+01	-5.607109e+02
1.000000e-08	-5.405928e-06	-8.592776e-09	-3.832316e+01	-5.605127e+02
2.000000e-08	-5.401389e-06	-8.586369e-09	-3.829098e+01	-5.601986e+02
3.000000e-08	-5.395197e-06	-8.579463e-09	-3.824709e+01	-5.597629e+02
4.000000e-08	-5.387457e-06	-8.569230e-09	-3.819222e+01	-5.592018e+02
5.000000e-08	-5.377859e-06	-8.555873e-09	-3.812417e+01	-5.585145e+02
6.000000e-08	-5.366168e-06	-8.538662e-09	-3.804130e+01	-5.577043e+02
7.000000e-08	-5.352578e-06	-8.511227e-09	-3.794495e+01	-5.567791e+02
8.000000e-08	-5.336827e-06	-8.528649e-09	-3.783329e+01	-5.557505e+02
9.000000e-08	-5.318821e-06	-8.568362e-09	-3.770565e+01	-5.546335e+02
1.000000e-07	-5.298779e-06	-8.518941e-09	-3.756357e+01	-5.534445e+02
1.100000e-07	-5.276820e-06	-8.471024e-09	-3.740790e+01	-5.521995e+02
1.200000e-07	-5.253190e-06	-8.413369e-09	-3.724038e+01	-5.509123e+02
1.300000e-07	-5.228025e-06	-8.299057e-09	-3.706199e+01	-5.495922e+02
1.400000e-07	-5.201271e-06	-8.435582e-09	-3.687232e+01	-5.482428e+02
1.500000e-07	-5.172869e-06	-8.446239e-09	-3.667098e+01	-5.468612e+02
1.600000e-07	-5.142996e-06	-8.257023e-09	-3.645921e+01	-5.454376e+02
1.700000e-07	-5.111566e-06	-8.369697e-09	-3.623639e+01	-5.439565e+02
1.800000e-07	-5.078016e-06	-8.273524e-09	-3.599856e+01	-5.423976e+02
1.900000e-07	-5.042607e-06	-8.156116e-09	-3.574754e+01	-5.407383e+02
2.000000e-07	-5.005750e-06	-8.341166e-09	-3.548626e+01	-5.389558e+02
2.100000e-07	-4.967129e-06	-8.226894e-09	-3.521247e+01	-5.370295e+02
2.200000e-07	-4.926657e-06	-8.105695e-09	-3.492556e+01	-5.349428e+02
2.300000e-07	-4.884252e-06	-8.150109e-09	-3.462495e+01	-5.326853e+02
2.400000e-07	-4.839929e-06	-8.052903e-09	-3.431073e+01	-5.302528e+02
2.500000e-07	-4.793791e-06	-8.052290e-09	-3.398366e+01	-5.276479e+02
2.600000e-07	-4.745639e-06	-8.024557e-09	-3.364230e+01	-5.248789e+02
2.700000e-07	-4.695396e-06	-7.930862e-09	-3.328612e+01	-5.219583e+02
2.800000e-07	-4.643131e-06	-7.902895e-09	-3.291562e+01	-5.189014e+02
2.900000e-07	-4.589024e-06	-7.841200e-09	-3.253204e+01	-5.157234e+02
3.000000e-07	-4.533361e-06	-7.795212e-09	-3.213745e+01	-5.124383e+02
3.100000e-07	-4.475968e-06	-7.777567e-09	-3.173058e+01	-5.090564e+02
3.200000e-07	-4.416754e-06	-7.739226e-09	-3.131081e+01	-5.055839e+02
3.300000e-07	-4.356002e-06	-7.634469e-09	-3.088013e+01	-5.020220e+02
3.400000e-07	-4.293796e-06	-7.566882e-09	-3.043914e+01	-4.983674e+02
3.500000e-07	-4.230211e-06	-7.573596e-09	-2.998838e+01	-4.946133e+02
3.600000e-07	-4.165064e-06	-7.490337e-09	-2.952655e+01	-4.907502e+02
3.700000e-07	-4.098161e-06	-7.403101e-09	-2.905227e+01	-4.867681e+02
3.800000e-07	-4.029752e-06	-7.354846e-09	-2.856731e+01	-4.826574e+02
3.900000e-07	-3.960037e-06	-7.274322e-09	-2.807309e+01	-4.784106e+02
4.000000e-07	-3.889097e-06	-7.212195e-09	-2.757019e+01	-4.740232e+02
4.100000e-07	-3.816905e-06	-7.152190e-09	-2.705842e+01	-4.694937e+02
4.200000e-07	-3.743201e-06	-7.100364e-09	-2.653592e+01	-4.648238e+02
4.300000e-07	-3.667865e-06	-7.009243e-09	-2.600185e+01	-4.600173e+02
4.400000e-07	-3.591027e-06	-6.907172e-09	-2.545714e+01	-4.550795e+02
4.500000e-07	-3.512766e-06	-6.837859e-09	-2.490234e+01	-4.500156e+02
4.600000e-07	-3.433089e-06	-6.785566e-09	-2.433750e+01	-4.448297e+02
4.700000e-07	-3.352136e-06	-6.714761e-09	-2.376362e+01	-4.395240e+02
4.800000e-07	-3.270013e-06	-6.611241e-09	-2.318145e+01	-4.340977e+02
4.900000e-07	-3.186774e-06	-6.531408e-09	-2.259136e+01	-4.285474e+02
5.000000e-07	-3.102557e-06	-6.445866e-09	-2.199433e+01	-4.228670e+02
5.100000e-07	-3.017406e-06	-6.345620e-09	-2.139069e+01	-4.170487e+02
5.200000e-07	-2.931221e-06	-6.254278e-09	-2.077972e+01	-4.110838e+02
5.300000e-07	-2.844075e-06	-6.162206e-09	-2.016193e+01	-4.049640e+02
5.400000e-07	-2.756063e-06	-6.059458e-09	-1.953800e+01	-3.986821e+02
5.500000e-07	-2.666992e-06	-5.958159e-09	-1.890657e+01	-3.922334e+02
5.600000e-07	-2.576664e-06	-5.865259e-09	-1.826623e+01	-3.856157e+02
5.700000e-07	-2.485260e-06	-5.769003e-09	-1.761825e+01	-3.788294e+02
5.800000e-07	-2.393084e-06	-5.658521e-09	-1.696481e+01	-3.718771e+02
5.900000e-07	-2.300149e-06	-5.541823e-09	-1.630599e+01	-3.647633e+02
6.000000e-07	-2.206373e-06	-5.431322e-09	-1.564120e+01	-3.574927e+02
6.100000e-07	-2.111826e-06	-5.321382e-09	-1.497094e+01	-3.500696e+02
6.200000e-07	-2.016568e-06	-5.209178e-09	-1.429565e+01	-3.424967e+02
6.300000e-07	-1.920618e-06	-5.090054e-09	-1.361545e+01	-3.347743e+02
6.400000e-07	-1.823916e-06	-4.963996e-09	-1.292992e+01	-3.269002e+02
6.500000e-07	-1.726360e-06	-4.834824e-09	-1.223834e+01	-3.188688e+02
6.600000e-07	-1.627994e-06	-4.707448e-09	-1.154101e+01	-3.106724e+02
6.700000e-07	-1.528995e-06	-4.582138e-09	-1.083920e+01	-3.023012e+02
6.800000e-07	-1.429488e-06	-4.451459e-09	-1.013378e+01	-2.937444e+02
6.900000e-07	-1.329587e-06	-4.316447e-09	-9.425573e+00	-2.849912e+02
7.000000e-07	-1.229350e-06	-4.178940e-09	-8.714986e+00	-2.760315e+02
7.100000e-07	-1.128765e-06	-4.038130e-09	-8.001924e+00	-2.668571e+02
7.200000e-07	-1.027820e-06	-3.892238e-09	-7.286320e+00	-2.574615e+02
7.300000e-07	-9.264925e-07	-3.743744e-09	-6.567997e+00	-2.478405e+02
7.400000e-07	-8.248218e-07	-3.589543e-09	-5.847243e+00	-2.379919e+02
7.500000e-07	-7.228528e-07	-3.431263e-09	-5.124375e+00	-2.279150e+02
7.600000e-07	-6.206189e-07	-3.272778e-09	-4.399629e+00	-2.176098e+02
7.700000e-07	-5.181794e-07	-3.112526e-09	-3.673425e+00	-2.070762e+02
7.800000e-07	-4.156144e-07	-2.950159e-09	-2.946331e+00	-1.963135e+02
7.900000e-07	-3.129673e-07	-2.781803e-09	-2.218656e+00	-1.853194e+02
8.000000e-07	-2.101893e-07	-2.609234e-09	-1.490053e+00	-1.740898e+02
8.100000e-07	-1.073061e-07	-2.432634e-09	-7.607039e-01	-1.626186e+02
8.200000e-07	-4.375711e-09	-2.251822e-09	-3.101985e-02	-1.508975e+02
8.300000e-07	9.856035e-08	-2.068177e-09	6.987041e-01	-1.389162e+02
8.400000e-07	2.014909e-07	-1.880519e-09	1.428389e+00	-1.266630e+02
8.500000e-07	3.044455e-07	-1.687558e-09	2.158244e+00	-1.141251e+02
8.600000e-07	4.073346e-07	-1.493213e-09	2.887635e+00	-1.012893e+02
8.700000e-07	5.100741e-07	-1.295919e-09	3.615966e+00	-8.814242e+01
8.800000e-07	6.126479e-07	-1.092483e-09	4.343122e+00	-7.467182e+01
8.900000e-07	7.150390e-07	-8.825409e-10	5.068982e+00	-6.086626e+01
9.000000e-07	8.171924e-07	-6.657888e-10	5.793158e+00	-4.671644e+01
9.100000e-07	9.190341e-07	-4.459725e-10	6.515124e+00	-3.221583e+01
9.200000e-07	1.020490e-06	-2.213007e-10	7.234352e+00	-1.736160e+01
9.300000e-07	1.121571e-06	9.113688e-12	7.950928e+00	-2.155655e+00
9.400000e-07	1.222297e-06	2.453715e-10	8.664981e+00	1.339421e+01
9.500000e-07	1.322621e-06	4.860190e-10	9.376189e+00	2.927314e+01
9.600000e-07	1.422535e-06	7.319661e-10	1.008449e+01	4.545814e+01
9.700000e-07	1.522032e-06	9.840136e-10	1.078983e+01	6.191725e+01
9.800000e-07	1.620947e-06	1.238106e-09	1.149105e+01	7.860901e+01
9.900000e-07	1.719097e-06	1.494211e-09	1.218685e+01	9.548257e+01
1.000000e-06	1.816383e-06	1.751579e-09	1.287652e+01	1.124783e+02
1.010000e-06	1.912807e-06	2.009927e-09	1.356007e+01	1.295293e+02
1.020000e-06	2.008528e-06	2.268077e-09	1.423866e+01	1.465629e+02
1.030000e-06	2.103545e-06	2.527139e-09	1.491224e+01	1.635041e+02
1.040000e-06	2.197851e-06	2.785364e-09	1.558078e+01	1.802774e+02
1.050000e-06	2.291418e-06	3.036218e-09	1.624409e+01	1.968109e+02
1.060000e-06	2.384188e-06	3.282100e-09	1.690175e+01	2.130384e+02
1.070000e-06	2.476277e-06	3.522106e-09	1.755457e+01	2.289026e+02
1.080000e-06	2.567626e-06	3.755526e-09	1.820215e+01	2.443566e+02
1.090000e-06	2.657925e-06	3.981916e-09	1.884229e+01	2.593651e+02
1.100000e-06	2.746988e-06	4.201510e-09	1.947367e+01	2.739046e+02
1.110000e-06	2.834978e-06	4.413626e-09	2.009744e+01	2.879626e+02
1.120000e-06	2.922078e-06	4.618952e-09	2.071490e+01	3.015361e+02
1.130000e-06	3.008243e-06	4.820860e-09	2.132573e+01	3.146296e+02
1.140000e-06	3.093407e-06	5.016883e-09	2.192947e+01	3.272523e+02
1.150000e-06	3.177620e-06	5.202761e-09	2.252646e+01	3.394157e+02
1.160000e-06	3.260904e-06	5.379217e-09	2.311687e+01	3.511318e+02
1.170000e-06	3.343115e-06	5.550664e-09	2.369967e+01	3.624107e+02
1.180000e-06	3.424031e-06	5.716158e-09	2.427329e+01	3.732600e+02
1.190000e-06	3.503679e-06	5.876015e-09	2.483792e+01	3.836845e+02
1.200000e-06	3.582123e-06	6.028104e-09	2.539402e+01	3.936865e+02
1.210000e-06	3.659268e-06	6.172508e-09	2.594091e+01	4.032668e+02
1.220000e-06	3.735120e-06	6.310966e-09	2.647864e+01	4.124265e+02
1.230000e-06	3.809448e-06	6.444804e-09	2.700555e+01	4.211682e+02
1.240000e-06	3.882098e-06	6.572600e-09	2.752058e+01	4.294976e+02
1.250000e-06	3.953306e-06	6.693570e-09	2.802538e+01	4.374244e+02
1.260000e-06	4.023175e-06	6.807159e-09	2.852068e+01	4.449631e+02
1.270000e-06	4.091655e-06	6.914264e-09	2.900615e+01	4.521328e+02
1.280000e-06	4.158698e-06	7.016954e-09	2.948142e+01	4.589560e+02
1.290000e-06	4.224128e-06	7.114367e-09	2.994526e+01	4.654578e+02
1.300000e-06	4.287951e-06	7.207913e-09	3.039771e+01	4.716640e+02
1.310000e-06	4.350299e-06	7.296893e-09	3.083970e+01	4.775995e+02
1.320000e-06	4.411183e-06	7.383141e-09	3.127131e+01	4.832861e+02
1.330000e-06	4.470678e-06	7.467831e-09	3.169308e+01	4.887418e+02
1.340000e-06	4.528560e-06	7.550074e-09	3.210341e+01	4.939796e+02
1.350000e-06	4.584666e-06	7.628251e-09	3.250115e+01	4.990075e+02
1.360000e-06	4.639125e-06	7.699965e-09	3.288722e+01	5.038288e+02
1.370000e-06	4.691880e-06	7.767198e-09	3.326120e+01	5.084428e+02
1.380000e-06	4.742640e-06	7.831979e-09	3.362105e+01	5.128468e+02
1.390000e-06	4.791283e-06	7.895113e-09	3.396588e+01	5.170368e+02
1.400000e-06	4.838174e-06	7.956299e-09	3.429829e+01	5.210094e+02
1.410000e-06	4.883496e-06	8.013636e-09	3.461959e+01	5.247631e+02
1.420000e-06	4.927259e-06	8.066603e-09	3.492983e+01	5.282986e+02
1.430000e-06	4.969228e-06	8.116685e-09	3.522735e+01	5.316196e+02
1.440000e-06	5.009269e-06	8.164137e-09	3.551120e+01	5.347323e+02
1.450000e-06	5.047615e-06	8.209551e-09	3.578304e+01	5.376447e+02
1.460000e-06	5.084339e-06	8.251011e-09	3.604338e+01	5.403659e+02
1.470000e-06	5.119353e-06	8.286208e-09	3.629160e+01	5.429052e+02
1.480000e-06	5.152421e-06	8.317623e-09	3.652602e+01	5.452705e+02
1.490000e-06	5.183604e-06	8.347009e-09	3.674708e+01	5.474685e+02
1.500000e-06	5.213117e-06	8.374681e-09	3.695630e+01	5.495035e+02
1.510000e-06	5.240984e-06	8.401990e-09	3.715386e+01	5.513779e+02
1.520000e-06	5.266873e-06	8.427357e-09	3.733738e+01	5.530927e+02
1.530000e-06	5.290648e-06	8.449786e-09	3.750593e+01	5.546479e+02
1.540000e-06	5.312522e-06	8.468536e-09	3.766099e+01	5.560438e+02
1.550000e-06	5.332672e-06	8.485515e-09	3.780384e+01	5.572814e+02
1.560000e-06	5.351007e-06	8.502303e-09	3.793382e+01	5.583636e+02
1.570000e-06	5.367360e-06	8.516299e-09	3.804974e+01	5.592954e+02
1.580000e-06	5.381734e-06	8.527644e-09	3.815164e+01	5.600836e+02
1.590000e-06	5.394087e-06	8.536638e-09	3.823921e+01	5.607367e+02
1.600000e-06	5.404203e-06	8.544925e-09	3.831093e+01	5.612641e+02
1.610000e-06	5.412158e-06	8.551601e-09	3.836732e+01	5.616745e+02
1.620000e-06	5.418253e-06	8.555828e-09	3.841053e+01	5.619758e+02
1.630000e-06	5.422574e-06	8.559900e-09	3.844116e+01	5.621732e+02
1.640000e-06	5.424930e-06	8.563890e-09	3.845787e+01	5.622691e+02
1.650000e-06	5.425231e-06	8.566596e-09	3.846000e+01	5.622629e+02
1.660000e-06	5.423782e-06	8.561884e-09	3.844972e+01	5.621511e+02
1.670000e-06	5.420712e-06	8.557472e-09	3.842796e+01	5.619283e+02
1.680000e-06	5.415956e-06	8.552961e-09	3.839425e+01	5.615883e+02
1.690000e-06	5.409295e-06	8.545578e-09	3.834703e+01	5.611257e+02
1.700000e-06	5.400787e-06	8.538653e-09	3.828671e+01	5.605371e+02
1.710000e-06	5.390725e-06	8.533167e-09	3.821539e+01	5.598228e+02
1.720000e-06	5.378992e-06	8.539442e-09	3.813221e+01	5.589869e+02
1.730000e-06	5.365274e-06	8.517970e-09	3.803496e+01	5.580381e+02
1.740000e-06	5.349460e-06	8.423694e-09	3.792285e+01	5.569890e+02
1.750000e-06	5.331257e-06	8.427510e-09	3.779381e+01	5.558549e+02
1.760000e-06	5.310330e-06	8.431537e-09	3.764546e+01	5.546523e+02
1.770000e-06	5.287094e-06	8.455957e-09	3.748073e+01	5.533969e+02
1.780000e-06	5.262565e-06	8.534058e-09	3.730685e+01	5.521017e+02
1.790000e-06	5.237368e-06	8.322500e-09	3.712822e+01	5.507750e+02
1.800000e-06	5.210755e-06	8.338222e-09	3.693956e+01	5.494189e+02
1.810000e-06	5.181825e-06	8.436774e-09	3.673447e+01	5.480290e+02
1.820000e-06	5.151124e-06	8.230402e-09	3.651683e+01	5.465943e+02
1.830000e-06	5.118767e-06	8.368261e-09	3.628745e+01	5.450981e+02
1.840000e-06	5.084393e-06	8.370539e-09	3.604377e+01	5.435193e+02
1.850000e-06	5.048508e-06	8.102076e-09	3.578938e+01	5.418353e+02
1.860000e-06	5.010841e-06	8.261776e-09	3.552235e+01	5.400233e+02
1.870000e-06	4.971198e-06	8.214183e-09	3.524132e+01	5.380635e+02
1.880000e-06	4.929901e-06	8.090318e-09	3.494855e+01	5.359406e+02
1.890000e-06	4.886758e-06	8.203782e-09	3.464271e+01	5.336454e+02
1.900000e-06	4.841988e-06	8.026011e-09	3.432533e+01	5.311753e+02
1.910000e-06	4.795365e-06	8.043864e-09	3.399482e+01	5.285341e+02
1.920000e-06	4.746671e-06	8.025793e-09	3.364962e+01	5.257311e+02
1.930000e-06	4.696419e-06	7.869583e-09	3.329338e+01	5.227797e+02
1.940000e-06	4.644369e-06	7.991099e-09	3.292439e+01	5.196953e+02
1.950000e-06	4.590242e-06	7.874831e-09	3.254068e+01	5.164930e+02
1.960000e-06	4.534227e-06	7.753422e-09	3.214358e+01	5.131861e+02
1.970000e-06	4.476507e-06	7.730463e-09	3.173440e+01	5.097841e+02
1.980000e-06	4.417375e-06	7.694004e-09	3.131521e+01	5.062922e+02
1.990000e-06	4.356686e-06	7.696701e-09	3.088498e+01	5.027106e+02
2.000000e-06	4.294190e-06	7.532502e-09	3.044194e+01	4.990351e+02
2.010000e-06	4.230079e-06	7.548203e-09	2.998745e+01	4.952582e+02
2.020000e-06	4.164500e-06	7.506182e-09	2.952255e+01	4.913702e+02
2.030000e-06	4.097541e-06	7.361069e-09	2.904787e+01	4.873610e+02
2.040000e-06	4.029150e-06	7.367387e-09	2.856304e+01	4.832214e+02
2.050000e-06	3.959193e-06	7.288562e-09	2.806711e+01	4.789445e+02
2.060000e-06	3.887731e-06	7.226364e-09	2.756051e+01	4.745263e+02
2.070000e-06	3.814944e-06	7.102185e-09	2.704452e+01	4.699663e+02
2.080000e-06	3.740858e-06	7.041482e-09	2.651931e+01	4.652664e+02
2.090000e-06	3.665346e-06	7.046097e-09	2.598400e+01	4.604310e+02
2.100000e-06	3.588343e-06	6.940837e-09	2.543812e+01	4.554654e+02
2.110000e-06	3.509738e-06	6.850168e-09	2.488088e+01	4.503748e+02
2.120000e-06	3.429810e-06	6.757686e-09	2.431426e+01	4.451629e+02
2.130000e-06	3.348830e-06	6.694387e-09	2.374019e+01	4.398312e+02
2.140000e-06	3.266711e-06	6.590412e-09	2.315804e+01	4.343784e+02
2.150000e-06	3.183495e-06	6.509830e-09	2.256811e+01	4.288006e+02
2.160000e-06	3.099272e-06	6.454591e-09	2.197105e+01	4.230910e+02
2.170000e-06	3.013891e-06	6.346811e-09	2.136577e+01	4.172418e+02
2.180000e-06	2.927104e-06	6.249584e-09	2.075053e+01	4.112441e+02
2.190000e-06	2.839118e-06	6.153936e-09	2.012679e+01	4.050897e+02
2.200000e-06	2.750224e-06	6.079600e-09	1.949661e+01	3.987722e+02
2.210000e-06	2.660429e-06	5.978204e-09	1.886005e+01	3.922871e+02
2.220000e-06	2.569714e-06	5.862758e-09	1.821696e+01	3.856328e+02
2.230000e-06	2.478183e-06	5.759392e-09	1.756808e+01	3.788104e+02
2.240000e-06	2.385909e-06	5.655101e-09	1.691395e+01	3.718228e+02
2.250000e-06	2.292737e-06	5.551807e-09	1.625344e+01	3.646747e+02
2.260000e-06	2.198632e-06	5.439548e-09	1.558632e+01	3.573708e+02
2.270000e-06	2.103544e-06	5.325067e-09	1.491223e+01	3.499152e+02
2.280000e-06	2.007505e-06	5.204923e-09	1.423140e+01	3.423100e+02
2.290000e-06	1.910802e-06	5.090596e-09	1.354586e+01	3.345551e+02
2.300000e-06	1.813620e-06	4.978817e-09	1.285693e+01	3.266475e+02
2.310000e-06	1.715968e-06	4.863336e-09	1.216467e+01	3.185813e+02
2.320000e-06	1.617726e-06	4.733767e-09	1.146822e+01	3.103480e+02
2.330000e-06	1.518948e-06	4.597287e-09	1.076797e+01	3.019377e+02
2.340000e-06	1.419712e-06	4.463896e-09	1.006448e+01	2.933394e+02
2.350000e-06	1.320054e-06	4.332185e-09	9.357996e+00	2.845424e+02
2.360000e-06	1.220078e-06	4.205270e-09	8.649252e+00	2.755371e+02
2.370000e-06	1.119732e-06	4.069838e-09	7.937889e+00	2.663154e+02
2.380000e-06	1.019003e-06	3.919805e-09	7.223815e+00	2.568715e+02
2.390000e-06	9.178877e-07	3.769004e-09	6.506996e+00	2.472016e+02
2.400000e-06	8.163714e-07	3.625353e-09	5.787338e+00	2.373039e+02
2.410000e-06	7.144698e-07	3.478858e-09	5.064947e+00	2.271778e+02
2.420000e-06	6.122498e-07	3.321317e-09	4.340300e+00	2.168233e+02
2.430000e-06	5.097678e-07	3.157551e-09	3.613794e+00	2.062404e+02
2.440000e-06	4.070342e-07	2.994429e-09	2.885506e+00	1.954281e+02
2.450000e-06	3.041648e-07	2.827755e-09	2.156254e+00	1.843837e+02
2.460000e-06	2.010955e-07	2.656413e-09	1.425586e+00	1.731027e+02
2.470000e-06	9.785383e-08	2.484434e-09	6.936955e-01	1.615784e+02
2.480000e-06	-5.429558e-09	2.302917e-09	-3.849067e-02	1.498021e+02
2.490000e-06	-1.086610e-07	2.113922e-09	-7.703083e-01	1.377633e+02
2.500000e-06	-2.118166e-07	1.927051e-09	-1.501589e+00	1.254499e+02
2.510000e-06	-3.148929e-07	1.741561e-09	-2.232307e+00	1.128490e+02
2.520000e-06	-4.178530e-07	1.550884e-09	-2.962201e+00	9.994739e+01
2.530000e-06	-5.207308e-07	1.348361e-09	-3.691512e+00	8.673186e+01
2.540000e-06	-6.234644e-07	1.139956e-09	-4.419801e+00	7.319009e+01
2.550000e-06	-7.258993e-07	9.265005e-10	-5.145972e+00	5.931117e+01
2.560000e-06	-8.279173e-07	7.043872e-10	-5.869187e+00	4.508633e+01
2.570000e-06	-9.294536e-07	4.774390e-10	-6.588988e+00	3.050976e+01
2.580000e-06	-1.030444e-06	2.476637e-10	-7.304917e+00	1.557953e+01
2.590000e-06	-1.131002e-06	1.507808e-11	-8.017787e+00	2.987237e-01
2.600000e-06	-1.231199e-06	-2.217275e-10	-8.728093e+00	-1.532345e+01
2.610000e-06	-1.331002e-06	-4.608457e-10	-9.435604e+00	-3.127048e+01
2.620000e-06	-1.430337e-06	-7.054383e-10	-1.013980e+01	-4.751752e+01
2.630000e-06	-1.529147e-06	-9.583442e-10	-1.084027e+01	-6.403058e+01
2.640000e-06	-1.627487e-06	-1.216615e-09	-1.153741e+01	-8.076618e+01
2.650000e-06	-1.725303e-06	-1.479230e-09	-1.223085e+01	-9.767151e+01
2.660000e-06	-1.822482e-06	-1.742324e-09	-1.291975e+01	-1.146852e+02
2.670000e-06	-1.919040e-06	-2.005366e-09	-1.360426e+01	-1.317390e+02
2.680000e-06	-2.015078e-06	-2.264805e-09	-1.428509e+01	-1.487595e+02
2.690000e-06	-2.110512e-06	-2.521271e-09	-1.496163e+01	-1.656712e+02
2.700000e-06	-2.205048e-06	-2.775781e-09	-1.563181e+01	-1.823994e+02
2.710000e-06	-2.298549e-06	-3.024723e-09	-1.629464e+01	-1.988729e+02
2.720000e-06	-2.391098e-06	-3.269599e-09	-1.695073e+01	-2.150273e+02
2.730000e-06	-2.482768e-06	-3.509892e-09	-1.760059e+01	-2.308075e+02
2.740000e-06	-2.573583e-06	-3.745850e-09	-1.824438e+01	-2.461688e+02
2.750000e-06	-2.663464e-06	-3.977066e-09	-1.888156e+01	-2.610787e+02
2.760000e-06	-2.752396e-06	-4.202790e-09	-1.951200e+01	-2.755160e+02
2.770000e-06	-2.840528e-06	-4.421040e-09	-2.013678e+01	-2.894705e+02
2.780000e-06	-2.927848e-06	-4.627879e-09	-2.075581e+01	-3.029409e+02
2.790000e-06	-3.014069e-06	-4.824965e-09	-2.136703e+01	-3.159328e+02
2.800000e-06	-3.099044e-06	-5.016261e-09	-2.196943e+01	-3.284564e+02
2.810000e-06	-3.182894e-06	-5.199906e-09	-2.256385e+01	-3.405233e+02
2.820000e-06	-3.265708e-06	-5.374938e-09	-2.315093e+01	-3.521452e+02
2.830000e-06	-3.347430e-06	-5.544569e-09	-2.373027e+01	-3.633318e+02
2.840000e-06	-3.428066e-06	-5.708367e-09	-2.430190e+01	-3.740900e+02
2.850000e-06	-3.507555e-06	-5.865586e-09	-2.486541e+01	-3.844241e+02
2.860000e-06	-3.585614e-06	-6.016891e-09	-2.541877e+01	-3.943360e+02
2.870000e-06	-3.662136e-06	-6.163081e-09	-2.596124e+01	-4.038264e+02
2.880000e-06	-3.737193e-06	-6.302252e-09	-2.649333e+01	-4.128965e+02
2.890000e-06	-3.810846e-06	-6.434727e-09	-2.701546e+01	-4.215495e+02
2.900000e-06	-3.883197e-06	-6.563956e-09	-2.752837e+01	-4.297919e+02
2.910000e-06	-3.954208e-06	-6.688955e-09	-2.803177e+01	-4.376344e+02
2.920000e-06	-4.023619e-06	-6.803868e-09	-2.852384e+01	-4.450927e+02
2.930000e-06	-4.091465e-06	-6.910281e-09	-2.900480e+01	-4.521863e+02
2.940000e-06	-4.157935e-06	-7.013309e-09	-2.947601e+01	-4.589388e+02
