# Temperatura_=_47.0
# Concentracion g/m^3_=_15000.0
# C_Vs_to_Am_M_A/Vsm_=_65563218390.804596
# pendiente_HvsI_1/m_=_3716.3
# ordenada_HvsI_A/m_=_1297.0
# frecuencia_Hz_=_301602.9387534403

Tiempo_(s)	Campo_(V.s)	Magnetizacion_(V.s)	Campo_(kA/m)	Magnetizacion_(A/m)
0.000000e+00	-5.416502e-06	-8.388296e-09	-3.833765e+01	-5.474719e+02
1.000000e-08	-5.414110e-06	-8.385645e-09	-3.832073e+01	-5.472935e+02
2.000000e-08	-5.409947e-06	-8.381717e-09	-3.829126e+01	-5.470049e+02
3.000000e-08	-5.404179e-06	-8.377390e-09	-3.825043e+01	-5.466036e+02
4.000000e-08	-5.396798e-06	-8.368904e-09	-3.819819e+01	-5.460885e+02
5.000000e-08	-5.387648e-06	-8.355126e-09	-3.813343e+01	-5.454598e+02
6.000000e-08	-5.376424e-06	-8.339198e-09	-3.805399e+01	-5.447207e+02
7.000000e-08	-5.363196e-06	-8.321810e-09	-3.796036e+01	-5.438766e+02
8.000000e-08	-5.347895e-06	-8.321458e-09	-3.785206e+01	-5.429359e+02
9.000000e-08	-5.330359e-06	-8.336873e-09	-3.772794e+01	-5.419088e+02
1.000000e-07	-5.310729e-06	-8.316632e-09	-3.758900e+01	-5.408068e+02
1.100000e-07	-5.289145e-06	-8.283571e-09	-3.743623e+01	-5.396412e+02
1.200000e-07	-5.265847e-06	-8.242747e-09	-3.727133e+01	-5.384216e+02
1.300000e-07	-5.240980e-06	-8.161006e-09	-3.709532e+01	-5.371548e+02
1.400000e-07	-5.214513e-06	-8.195787e-09	-3.690799e+01	-5.358435e+02
1.500000e-07	-5.186457e-06	-8.221501e-09	-3.670942e+01	-5.344858e+02
1.600000e-07	-5.156898e-06	-8.122184e-09	-3.650019e+01	-5.330747e+02
1.700000e-07	-5.125822e-06	-8.147368e-09	-3.628024e+01	-5.315987e+02
1.800000e-07	-5.092712e-06	-8.116125e-09	-3.604589e+01	-5.300427e+02
1.900000e-07	-5.057633e-06	-8.013979e-09	-3.579760e+01	-5.283895e+02
2.000000e-07	-5.021034e-06	-8.060880e-09	-3.553856e+01	-5.266211e+02
2.100000e-07	-4.982741e-06	-8.025844e-09	-3.526752e+01	-5.247210e+02
2.200000e-07	-4.942608e-06	-7.933832e-09	-3.498347e+01	-5.226754e+02
2.300000e-07	-4.900500e-06	-7.939209e-09	-3.468543e+01	-5.204748e+02
2.400000e-07	-4.856440e-06	-7.920696e-09	-3.437357e+01	-5.181149e+02
2.500000e-07	-4.810645e-06	-7.878066e-09	-3.404944e+01	-5.155964e+02
2.600000e-07	-4.762995e-06	-7.819584e-09	-3.371218e+01	-5.129251e+02
2.700000e-07	-4.713201e-06	-7.762936e-09	-3.335973e+01	-5.101108e+02
2.800000e-07	-4.661306e-06	-7.721880e-09	-3.299243e+01	-5.071658e+02
2.900000e-07	-4.607563e-06	-7.663272e-09	-3.261204e+01	-5.041035e+02
3.000000e-07	-4.552170e-06	-7.634144e-09	-3.221997e+01	-5.009369e+02
3.100000e-07	-4.495118e-06	-7.608597e-09	-3.181616e+01	-4.976766e+02
3.200000e-07	-4.436261e-06	-7.552442e-09	-3.139958e+01	-4.943301e+02
3.300000e-07	-4.375713e-06	-7.482435e-09	-3.097102e+01	-4.909010e+02
3.400000e-07	-4.313696e-06	-7.424077e-09	-3.053206e+01	-4.873887e+02
3.500000e-07	-4.250315e-06	-7.388847e-09	-3.008346e+01	-4.837891e+02
3.600000e-07	-4.185409e-06	-7.326512e-09	-2.962406e+01	-4.800950e+02
3.700000e-07	-4.118807e-06	-7.253134e-09	-2.915265e+01	-4.762974e+02
3.800000e-07	-4.050637e-06	-7.200904e-09	-2.867015e+01	-4.723868e+02
3.900000e-07	-3.981094e-06	-7.141743e-09	-2.817793e+01	-4.683544e+02
4.000000e-07	-3.910340e-06	-7.072664e-09	-2.767714e+01	-4.641929e+02
4.100000e-07	-3.838335e-06	-7.004453e-09	-2.716749e+01	-4.598974e+02
4.200000e-07	-3.764807e-06	-6.945903e-09	-2.664707e+01	-4.554656e+02
4.300000e-07	-3.689676e-06	-6.869717e-09	-2.611529e+01	-4.508975e+02
4.400000e-07	-3.613061e-06	-6.790525e-09	-2.557302e+01	-4.461953e+02
4.500000e-07	-3.534977e-06	-6.727300e-09	-2.502035e+01	-4.413624e+02
4.600000e-07	-3.455415e-06	-6.660744e-09	-2.445721e+01	-4.364024e+02
4.700000e-07	-3.374585e-06	-6.578970e-09	-2.388510e+01	-4.313186e+02
4.800000e-07	-3.292607e-06	-6.490013e-09	-2.330486e+01	-4.261127e+02
4.900000e-07	-3.209481e-06	-6.413240e-09	-2.271650e+01	-4.207850e+02
5.000000e-07	-3.125384e-06	-6.332808e-09	-2.212127e+01	-4.153336e+02
5.100000e-07	-3.040333e-06	-6.242862e-09	-2.151928e+01	-4.097547e+02
5.200000e-07	-2.954278e-06	-6.150881e-09	-2.091019e+01	-4.040430e+02
5.300000e-07	-2.867266e-06	-6.059120e-09	-2.029432e+01	-3.981923e+02
5.400000e-07	-2.779310e-06	-5.966122e-09	-1.967178e+01	-3.921962e+02
5.500000e-07	-2.690304e-06	-5.871133e-09	-1.904180e+01	-3.860487e+02
5.600000e-07	-2.600116e-06	-5.775263e-09	-1.840346e+01	-3.797448e+02
5.700000e-07	-2.508866e-06	-5.679892e-09	-1.775759e+01	-3.732809e+02
5.800000e-07	-2.416747e-06	-5.579022e-09	-1.710558e+01	-3.666549e+02
5.900000e-07	-2.323819e-06	-5.472529e-09	-1.644784e+01	-3.598662e+02
6.000000e-07	-2.230090e-06	-5.365699e-09	-1.578443e+01	-3.529152e+02
6.100000e-07	-2.135598e-06	-5.255759e-09	-1.511563e+01	-3.458028e+02
6.200000e-07	-2.040362e-06	-5.143527e-09	-1.444155e+01	-3.385300e+02
6.300000e-07	-1.944380e-06	-5.027296e-09	-1.376220e+01	-3.310970e+02
6.400000e-07	-1.847614e-06	-4.909844e-09	-1.307729e+01	-3.235032e+02
6.500000e-07	-1.750032e-06	-4.792978e-09	-1.238661e+01	-3.157461e+02
6.600000e-07	-1.651681e-06	-4.671294e-09	-1.169049e+01	-3.078220e+02
6.700000e-07	-1.552647e-06	-4.543899e-09	-1.098954e+01	-2.997253e+02
6.800000e-07	-1.453115e-06	-4.414786e-09	-1.028505e+01	-2.914493e+02
6.900000e-07	-1.353187e-06	-4.284976e-09	-9.577769e+00	-2.829863e+02
7.000000e-07	-1.252928e-06	-4.153179e-09	-8.868147e+00	-2.743281e+02
7.100000e-07	-1.152320e-06	-4.018909e-09	-8.156051e+00	-2.654665e+02
7.200000e-07	-1.051291e-06	-3.878923e-09	-7.440971e+00	-2.563938e+02
7.300000e-07	-9.498793e-07	-3.734468e-09	-6.723186e+00	-2.471030e+02
7.400000e-07	-8.481275e-07	-3.586685e-09	-6.002993e+00	-2.375882e+02
7.500000e-07	-7.460713e-07	-3.435287e-09	-5.280646e+00	-2.278446e+02
7.600000e-07	-6.437730e-07	-3.280443e-09	-4.556585e+00	-2.178684e+02
7.700000e-07	-5.412708e-07	-3.123513e-09	-3.831080e+00	-2.076566e+02
7.800000e-07	-4.385895e-07	-2.965590e-09	-3.104309e+00	-1.972070e+02
7.900000e-07	-3.357690e-07	-2.804503e-09	-2.376552e+00	-1.865174e+02
8.000000e-07	-2.328495e-07	-2.637601e-09	-1.648094e+00	-1.755855e+02
8.100000e-07	-1.298393e-07	-2.463222e-09	-9.189944e-01	-1.644086e+02
8.200000e-07	-2.673651e-08	-2.284967e-09	-1.892393e-01	-1.529830e+02
8.300000e-07	7.639308e-08	-2.106070e-09	5.407054e-01	-1.413039e+02
8.400000e-07	1.794927e-07	-1.923438e-09	1.270438e+00	-1.293650e+02
8.500000e-07	2.825285e-07	-1.735357e-09	1.999719e+00	-1.171584e+02
8.600000e-07	3.854884e-07	-1.546167e-09	2.728463e+00	-1.046748e+02
8.700000e-07	4.883584e-07	-1.354245e-09	3.456569e+00	-9.190323e+01
8.800000e-07	5.911212e-07	-1.155297e-09	4.183918e+00	-7.883163e+01
8.900000e-07	6.937262e-07	-9.509284e-10	4.910150e+00	-6.544751e+01
9.000000e-07	7.960946e-07	-7.432493e-10	5.634707e+00	-5.173865e+01
9.100000e-07	8.981837e-07	-5.311675e-10	6.357287e+00	-3.769423e+01
9.200000e-07	9.999226e-07	-3.132876e-10	7.077389e+00	-2.330617e+01
9.300000e-07	1.101278e-06	-8.986589e-11	7.794774e+00	-8.570616e+00
9.400000e-07	1.202236e-06	1.387767e-10	8.509350e+00	6.510449e+00
9.500000e-07	1.302752e-06	3.713413e-10	9.220798e+00	2.192769e+01
9.600000e-07	1.402836e-06	6.085735e-10	9.929187e+00	3.766305e+01
9.700000e-07	1.502528e-06	8.524917e-10	1.063480e+01	5.368874e+01
9.800000e-07	1.601771e-06	1.102068e-09	1.133724e+01	6.996672e+01
9.900000e-07	1.700404e-06	1.354171e-09	1.203535e+01	8.644880e+01
1.000000e-06	1.798225e-06	1.607690e-09	1.272772e+01	1.030774e+02
1.010000e-06	1.895113e-06	1.862696e-09	1.341349e+01	1.197870e+02
1.020000e-06	1.991147e-06	2.117951e-09	1.409321e+01	1.365064e+02
1.030000e-06	2.086440e-06	2.372560e-09	1.476769e+01	1.531610e+02
1.040000e-06	2.181045e-06	2.624969e-09	1.543730e+01	1.696762e+02
1.050000e-06	2.274936e-06	2.872328e-09	1.610185e+01	1.859799e+02
1.060000e-06	2.368024e-06	3.112655e-09	1.676072e+01	2.020059e+02
1.070000e-06	2.460374e-06	3.347101e-09	1.741437e+01	2.176959e+02
1.080000e-06	2.552021e-06	3.579066e-09	1.806304e+01	2.330015e+02
1.090000e-06	2.642782e-06	3.806898e-09	1.870544e+01	2.478854e+02
1.100000e-06	2.732407e-06	4.027502e-09	1.933980e+01	2.623212e+02
1.110000e-06	2.820818e-06	4.238810e-09	1.996557e+01	2.762931e+02
1.120000e-06	2.908190e-06	4.441648e-09	2.058398e+01	2.897943e+02
1.130000e-06	2.994699e-06	4.639023e-09	2.119629e+01	3.028253e+02
1.140000e-06	3.080271e-06	4.831220e-09	2.180196e+01	3.153915e+02
1.150000e-06	3.164819e-06	5.015582e-09	2.240039e+01	3.275013e+02
1.160000e-06	3.248444e-06	5.191949e-09	2.299228e+01	3.391637e+02
1.170000e-06	3.331020e-06	5.363097e-09	2.357675e+01	3.503869e+02
1.180000e-06	3.412275e-06	5.528082e-09	2.415186e+01	3.611773e+02
1.190000e-06	3.492255e-06	5.686013e-09	2.471796e+01	3.715395e+02
1.200000e-06	3.571065e-06	5.836950e-09	2.527577e+01	3.814760e+02
1.210000e-06	3.648639e-06	5.982390e-09	2.582484e+01	3.909886e+02
1.220000e-06	3.724914e-06	6.120873e-09	2.636470e+01	4.000793e+02
1.230000e-06	3.799698e-06	6.253093e-09	2.689402e+01	4.087519e+02
1.240000e-06	3.872865e-06	6.379909e-09	2.741189e+01	4.170128e+02
1.250000e-06	3.944519e-06	6.499973e-09	2.791906e+01	4.248724e+02
1.260000e-06	4.014745e-06	6.612273e-09	2.841611e+01	4.323453e+02
1.270000e-06	4.083595e-06	6.718033e-09	2.890342e+01	4.394502e+02
1.280000e-06	4.151107e-06	6.818590e-09	2.938127e+01	4.462095e+02
1.290000e-06	4.217078e-06	6.912487e-09	2.984821e+01	4.526478e+02
1.300000e-06	4.281350e-06	7.002706e-09	3.030312e+01	4.587906e+02
1.310000e-06	4.344036e-06	7.091772e-09	3.074681e+01	4.646626e+02
1.320000e-06	4.405244e-06	7.178728e-09	3.118004e+01	4.702862e+02
1.330000e-06	4.465097e-06	7.262712e-09	3.160367e+01	4.756802e+02
1.340000e-06	4.523398e-06	7.343784e-09	3.201632e+01	4.808588e+02
1.350000e-06	4.579889e-06	7.421017e-09	3.241616e+01	4.858313e+02
1.360000e-06	4.634705e-06	7.491510e-09	3.280415e+01	4.906021e+02
1.370000e-06	4.687887e-06	7.557112e-09	3.318056e+01	4.951718e+02
1.380000e-06	4.739225e-06	7.621648e-09	3.354393e+01	4.995381e+02
1.390000e-06	4.788468e-06	7.685190e-09	3.389247e+01	5.036969e+02
1.400000e-06	4.835761e-06	7.745381e-09	3.422721e+01	5.076442e+02
1.410000e-06	4.881400e-06	7.800897e-09	3.455024e+01	5.113769e+02
1.420000e-06	4.925534e-06	7.853750e-09	3.486262e+01	5.148938e+02
1.430000e-06	4.967969e-06	7.903870e-09	3.516297e+01	5.181966e+02
1.440000e-06	5.008442e-06	7.951134e-09	3.544943e+01	5.212895e+02
1.450000e-06	5.047144e-06	7.995720e-09	3.572336e+01	5.241790e+02
1.460000e-06	5.084243e-06	8.036132e-09	3.598595e+01	5.268736e+02
1.470000e-06	5.119766e-06	8.072419e-09	3.623738e+01	5.293824e+02
1.480000e-06	5.153419e-06	8.105542e-09	3.647557e+01	5.317149e+02
1.490000e-06	5.185082e-06	8.135825e-09	3.669968e+01	5.338795e+02
1.500000e-06	5.214955e-06	8.162376e-09	3.691112e+01	5.358833e+02
1.510000e-06	5.243153e-06	8.186622e-09	3.711070e+01	5.377319e+02
1.520000e-06	5.269478e-06	8.209664e-09	3.729703e+01	5.394290e+02
1.530000e-06	5.293716e-06	8.232036e-09	3.746859e+01	5.409771e+02
1.540000e-06	5.316082e-06	8.253249e-09	3.762689e+01	5.423780e+02
1.550000e-06	5.336742e-06	8.272764e-09	3.777312e+01	5.436330e+02
1.560000e-06	5.355536e-06	8.289569e-09	3.790614e+01	5.447441e+02
1.570000e-06	5.372296e-06	8.302941e-09	3.802477e+01	5.457141e+02
1.580000e-06	5.387062e-06	8.314556e-09	3.812928e+01	5.465468e+02
1.590000e-06	5.399849e-06	8.324951e-09	3.821979e+01	5.472471e+02
1.600000e-06	5.410477e-06	8.333913e-09	3.829501e+01	5.478208e+02
1.610000e-06	5.418905e-06	8.341119e-09	3.835467e+01	5.482738e+02
1.620000e-06	5.425396e-06	8.346113e-09	3.840061e+01	5.486117e+02
1.630000e-06	5.430110e-06	8.350966e-09	3.843398e+01	5.488389e+02
1.640000e-06	5.432947e-06	8.354467e-09	3.845406e+01	5.489584e+02
1.650000e-06	5.433787e-06	8.355609e-09	3.846000e+01	5.489716e+02
1.660000e-06	5.432753e-06	8.352991e-09	3.845268e+01	5.488781e+02
1.670000e-06	5.430000e-06	8.347794e-09	3.843319e+01	5.486760e+02
1.680000e-06	5.425564e-06	8.342287e-09	3.840180e+01	5.483632e+02
1.690000e-06	5.419233e-06	8.335814e-09	3.835698e+01	5.479373e+02
1.700000e-06	5.411058e-06	8.330145e-09	3.829913e+01	5.473975e+02
1.710000e-06	5.401336e-06	8.323633e-09	3.823031e+01	5.467446e+02
1.720000e-06	5.389944e-06	8.319944e-09	3.814968e+01	5.459822e+02
1.730000e-06	5.376593e-06	8.306624e-09	3.805518e+01	5.451164e+02
1.740000e-06	5.361185e-06	8.256556e-09	3.794613e+01	5.441560e+02
1.750000e-06	5.343515e-06	8.235951e-09	3.782106e+01	5.431116e+02
1.760000e-06	5.323166e-06	8.226993e-09	3.767703e+01	5.419949e+02
1.770000e-06	5.300321e-06	8.232315e-09	3.751534e+01	5.408167e+02
1.780000e-06	5.275970e-06	8.276795e-09	3.734298e+01	5.395863e+02
1.790000e-06	5.250899e-06	8.187287e-09	3.716553e+01	5.383096e+02
1.800000e-06	5.224612e-06	8.148429e-09	3.697947e+01	5.369885e+02
1.810000e-06	5.196197e-06	8.181856e-09	3.677835e+01	5.356198e+02
1.820000e-06	5.165786e-06	8.092290e-09	3.656311e+01	5.341957e+02
1.830000e-06	5.133670e-06	8.114122e-09	3.633579e+01	5.327037e+02
1.840000e-06	5.099637e-06	8.122490e-09	3.609490e+01	5.311282e+02
1.850000e-06	5.063970e-06	8.011217e-09	3.584246e+01	5.294515e+02
1.860000e-06	5.026645e-06	8.046352e-09	3.557827e+01	5.276559e+02
1.870000e-06	4.987367e-06	8.032959e-09	3.530027e+01	5.257254e+02
1.880000e-06	4.946356e-06	7.935211e-09	3.500999e+01	5.236470e+02
1.890000e-06	4.903537e-06	7.926859e-09	3.470692e+01	5.214123e+02
1.900000e-06	4.858987e-06	7.878089e-09	3.439160e+01	5.190179e+02
1.910000e-06	4.812726e-06	7.865787e-09	3.406417e+01	5.164658e+02
1.920000e-06	4.764465e-06	7.818167e-09	3.372258e+01	5.137626e+02
1.930000e-06	4.714489e-06	7.742578e-09	3.336885e+01	5.109190e+02
1.940000e-06	4.662814e-06	7.775832e-09	3.300310e+01	5.079475e+02
1.950000e-06	4.609066e-06	7.691095e-09	3.262268e+01	5.048616e+02
1.960000e-06	4.553398e-06	7.594567e-09	3.222866e+01	5.016739e+02
1.970000e-06	4.495952e-06	7.573526e-09	3.182206e+01	4.983943e+02
1.980000e-06	4.436980e-06	7.530001e-09	3.140466e+01	4.950297e+02
1.990000e-06	4.376520e-06	7.496018e-09	3.097673e+01	4.915828e+02
2.000000e-06	4.314308e-06	7.410692e-09	3.053640e+01	4.880520e+02
2.010000e-06	4.250501e-06	7.372578e-09	3.008477e+01	4.844325e+02
2.020000e-06	4.185210e-06	7.327496e-09	2.962265e+01	4.807168e+02
2.030000e-06	4.118432e-06	7.223610e-09	2.915000e+01	4.768955e+02
2.040000e-06	4.050184e-06	7.189339e-09	2.866695e+01	4.729593e+02
2.050000e-06	3.980436e-06	7.148674e-09	2.817327e+01	4.688996e+02
2.060000e-06	3.909193e-06	7.075918e-09	2.766902e+01	4.647094e+02
2.070000e-06	3.836598e-06	6.989059e-09	2.715519e+01	4.603846e+02
2.080000e-06	3.762716e-06	6.927528e-09	2.663226e+01	4.559232e+02
2.090000e-06	3.687426e-06	6.882012e-09	2.609937e+01	4.513260e+02
2.100000e-06	3.610646e-06	6.794910e-09	2.555592e+01	4.465952e+02
2.110000e-06	3.532279e-06	6.713262e-09	2.500124e+01	4.417345e+02
2.120000e-06	3.452530e-06	6.641999e-09	2.443679e+01	4.367475e+02
2.130000e-06	3.371672e-06	6.568890e-09	2.386448e+01	4.316372e+02
2.140000e-06	3.289659e-06	6.485037e-09	2.328400e+01	4.264051e+02
2.150000e-06	3.206583e-06	6.407364e-09	2.269599e+01	4.210508e+02
2.160000e-06	3.122454e-06	6.332682e-09	2.210053e+01	4.155722e+02
2.170000e-06	3.037075e-06	6.241568e-09	2.149622e+01	4.099651e+02
2.180000e-06	2.950384e-06	6.149458e-09	2.088263e+01	4.042239e+02
2.190000e-06	2.862536e-06	6.059394e-09	2.026085e+01	3.983423e+02
2.200000e-06	2.773697e-06	5.977301e-09	1.963205e+01	3.923140e+02
2.210000e-06	2.683936e-06	5.886548e-09	1.899673e+01	3.861331e+02
2.220000e-06	2.593289e-06	5.783023e-09	1.835514e+01	3.797950e+02
2.230000e-06	2.501792e-06	5.682286e-09	1.770753e+01	3.732962e+02
2.240000e-06	2.409521e-06	5.584895e-09	1.705444e+01	3.666351e+02
2.250000e-06	2.316439e-06	5.485804e-09	1.639561e+01	3.598114e+02
2.260000e-06	2.222385e-06	5.379783e-09	1.572990e+01	3.528254e+02
2.270000e-06	2.127312e-06	5.269445e-09	1.505698e+01	3.456784e+02
2.280000e-06	2.031328e-06	5.159932e-09	1.437761e+01	3.383710e+02
2.290000e-06	1.934599e-06	5.047094e-09	1.369297e+01	3.309035e+02
2.300000e-06	1.837296e-06	4.929481e-09	1.300426e+01	3.232746e+02
2.310000e-06	1.739562e-06	4.815194e-09	1.231251e+01	3.154819e+02
2.320000e-06	1.641303e-06	4.697287e-09	1.161704e+01	3.075210e+02
2.330000e-06	1.542455e-06	4.568747e-09	1.091740e+01	2.993863e+02
2.340000e-06	1.443133e-06	4.440143e-09	1.021440e+01	2.910707e+02
2.350000e-06	1.343341e-06	4.315037e-09	9.508079e+00	2.825663e+02
2.360000e-06	1.243192e-06	4.187371e-09	8.799231e+00	2.738650e+02
2.370000e-06	1.142787e-06	4.052116e-09	8.088576e+00	2.649586e+02
2.380000e-06	1.042033e-06	3.910935e-09	7.375445e+00	2.558394e+02
2.390000e-06	9.408601e-07	3.770742e-09	6.659348e+00	2.465009e+02
2.400000e-06	8.392510e-07	3.628743e-09	5.940165e+00	2.369372e+02
2.410000e-06	7.371890e-07	3.481710e-09	5.217777e+00	2.271437e+02
2.420000e-06	6.348033e-07	3.329457e-09	4.493098e+00	2.171170e+02
2.430000e-06	5.321842e-07	3.172211e-09	3.766766e+00	2.068542e+02
2.440000e-06	4.293078e-07	3.013131e-09	3.038613e+00	1.963531e+02
2.450000e-06	3.262819e-07	2.852343e-09	2.309402e+00	1.856115e+02
2.460000e-06	2.231409e-07	2.687619e-09	1.579377e+00	1.746271e+02
2.470000e-06	1.197988e-07	2.518823e-09	8.479285e-01	1.633970e+02
2.480000e-06	1.635892e-08	2.342139e-09	1.157874e-01	1.519173e+02
2.490000e-06	-8.702959e-08	2.159622e-09	-6.159899e-01	1.401829e+02
2.500000e-06	-1.904062e-07	1.977447e-09	-1.347683e+00	1.281871e+02
2.510000e-06	-2.937452e-07	1.795129e-09	-2.079110e+00	1.159218e+02
2.520000e-06	-3.969877e-07	1.608884e-09	-2.809854e+00	1.033772e+02
2.530000e-06	-5.000959e-07	1.413847e-09	-3.539647e+00	9.054215e+01
2.540000e-06	-6.029801e-07	1.212543e-09	-4.267855e+00	7.740440e+01
2.550000e-06	-7.055596e-07	1.006399e-09	-4.993906e+00	6.395145e+01
2.560000e-06	-8.077943e-07	7.921708e-10	-5.717517e+00	5.017128e+01
2.570000e-06	-9.096059e-07	5.719956e-10	-6.438133e+00	3.605355e+01
2.580000e-06	-1.010885e-06	3.476816e-10	-7.154980e+00	2.159093e+01
2.590000e-06	-1.111715e-06	1.196798e-10	-7.868649e+00	6.780706e+00
2.600000e-06	-1.212206e-06	-1.107234e-10	-8.579916e+00	-8.373702e+00
2.610000e-06	-1.312259e-06	-3.440253e-10	-9.288086e+00	-2.386119e+01
2.620000e-06	-1.411810e-06	-5.853112e-10	-9.992704e+00	-3.966169e+01
2.630000e-06	-1.510868e-06	-8.328165e-10	-1.069383e+01	-5.574524e+01
2.640000e-06	-1.609432e-06	-1.083054e-09	-1.139146e+01	-7.207159e+01
2.650000e-06	-1.707500e-06	-1.335610e-09	-1.208558e+01	-8.859045e+01
2.660000e-06	-1.804949e-06	-1.589555e-09	-1.277532e+01	-1.052424e+02
2.670000e-06	-1.901773e-06	-1.845233e-09	-1.346063e+01	-1.219605e+02
2.680000e-06	-1.998071e-06	-2.099356e-09	-1.414222e+01	-1.386726e+02
2.690000e-06	-2.093807e-06	-2.353079e-09	-1.481983e+01	-1.553038e+02
2.700000e-06	-2.188777e-06	-2.604913e-09	-1.549203e+01	-1.717798e+02
2.710000e-06	-2.282729e-06	-2.852773e-09	-1.615701e+01	-1.880296e+02
2.720000e-06	-2.375609e-06	-3.096058e-09	-1.681441e+01	-2.039884e+02
2.730000e-06	-2.467573e-06	-3.334532e-09	-1.746532e+01	-2.196000e+02
2.740000e-06	-2.558731e-06	-3.569813e-09	-1.811053e+01	-2.348182e+02
2.750000e-06	-2.649021e-06	-3.799003e-09	-1.874960e+01	-2.496082e+02
2.760000e-06	-2.738360e-06	-4.020199e-09	-1.938194e+01	-2.639458e+02
2.770000e-06	-2.826815e-06	-4.235033e-09	-2.000801e+01	-2.778174e+02
2.780000e-06	-2.914469e-06	-4.441831e-09	-2.062843e+01	-2.912178e+02
2.790000e-06	-3.001096e-06	-4.639437e-09	-2.124157e+01	-3.041489e+02
2.800000e-06	-3.086417e-06	-4.830326e-09	-2.184547e+01	-3.166168e+02
2.810000e-06	-3.170585e-06	-5.013756e-09	-2.244120e+01	-3.286302e+02
2.820000e-06	-3.253766e-06	-5.188563e-09	-2.302995e+01	-3.401981e+02
2.830000e-06	-3.335868e-06	-5.357200e-09	-2.361106e+01	-3.513283e+02
2.840000e-06	-3.416872e-06	-5.520259e-09	-2.418441e+01	-3.620269e+02
2.850000e-06	-3.496752e-06	-5.677070e-09	-2.474979e+01	-3.722979e+02
2.860000e-06	-3.575203e-06	-5.827549e-09	-2.530506e+01	-3.821437e+02
2.870000e-06	-3.652046e-06	-5.972254e-09	-2.584895e+01	-3.915659e+02
2.880000e-06	-3.727445e-06	-6.110455e-09	-2.638262e+01	-4.005669e+02
2.890000e-06	-3.801502e-06	-6.240442e-09	-2.690679e+01	-4.091508e+02
2.900000e-06	-3.874260e-06	-6.366265e-09	-2.742177e+01	-4.173249e+02
2.910000e-06	-3.945691e-06	-6.489095e-09	-2.792735e+01	-4.251005e+02
2.920000e-06	-4.015500e-06	-6.605425e-09	-2.842146e+01	-4.324931e+02
2.930000e-06	-4.083693e-06	-6.714109e-09	-2.890412e+01	-4.395222e+02
2.940000e-06	-4.150525e-06	-6.817214e-09	-2.937716e+01	-4.462109e+02
