# Temperatura_=_52.27
# Concentracion g/m^3_=_15000.0
# C_Vs_to_Am_M_A/Vsm_=_65563218390.804596
# pendiente_HvsI_1/m_=_3716.3
# ordenada_HvsI_A/m_=_1297.0
# frecuencia_Hz_=_301590.39178205526

Tiempo_(s)	Campo_(V.s)	Magnetizacion_(V.s)	Campo_(kA/m)	Magnetizacion_(A/m)
0.000000e+00	-5.418909e-06	-8.613602e-09	-3.834061e+01	-5.629353e+02
1.000000e-08	-5.416199e-06	-8.611353e-09	-3.832143e+01	-5.627077e+02
2.000000e-08	-5.411645e-06	-8.604832e-09	-3.828921e+01	-5.623608e+02
3.000000e-08	-5.405458e-06	-8.599923e-09	-3.824543e+01	-5.618949e+02
4.000000e-08	-5.397690e-06	-8.590654e-09	-3.819047e+01	-5.613117e+02
5.000000e-08	-5.387999e-06	-8.575832e-09	-3.812191e+01	-5.606144e+02
6.000000e-08	-5.376242e-06	-8.558647e-09	-3.803872e+01	-5.598079e+02
7.000000e-08	-5.362642e-06	-8.536161e-09	-3.794250e+01	-5.588991e+02
8.000000e-08	-5.346960e-06	-8.545327e-09	-3.783154e+01	-5.578966e+02
9.000000e-08	-5.329009e-06	-8.586665e-09	-3.770453e+01	-5.568098e+02
1.000000e-07	-5.309014e-06	-8.549872e-09	-3.756306e+01	-5.556483e+02
1.100000e-07	-5.287167e-06	-8.492454e-09	-3.740849e+01	-5.544206e+02
1.200000e-07	-5.263601e-06	-8.442071e-09	-3.724175e+01	-5.531335e+02
1.300000e-07	-5.238421e-06	-8.332129e-09	-3.706359e+01	-5.517907e+02
1.400000e-07	-5.211615e-06	-8.411598e-09	-3.687393e+01	-5.503921e+02
1.500000e-07	-5.183200e-06	-8.479085e-09	-3.667288e+01	-5.489337e+02
1.600000e-07	-5.153321e-06	-8.321222e-09	-3.646148e+01	-5.474074e+02
1.700000e-07	-5.121851e-06	-8.382530e-09	-3.623882e+01	-5.458017e+02
1.800000e-07	-5.088267e-06	-8.345629e-09	-3.600120e+01	-5.441024e+02
1.900000e-07	-5.052811e-06	-8.168930e-09	-3.575034e+01	-5.422941e+02
2.000000e-07	-5.015886e-06	-8.273385e-09	-3.548908e+01	-5.403615e+02
2.100000e-07	-4.977208e-06	-8.225075e-09	-3.521542e+01	-5.382909e+02
2.200000e-07	-4.936670e-06	-8.101678e-09	-3.492860e+01	-5.360717e+02
2.300000e-07	-4.894123e-06	-8.166418e-09	-3.462757e+01	-5.336969e+02
2.400000e-07	-4.849562e-06	-8.134289e-09	-3.431228e+01	-5.311642e+02
2.500000e-07	-4.803244e-06	-8.068647e-09	-3.398457e+01	-5.284757e+02
2.600000e-07	-4.755016e-06	-8.015466e-09	-3.364334e+01	-5.256375e+02
2.700000e-07	-4.704638e-06	-7.947927e-09	-3.328689e+01	-5.226589e+02
2.800000e-07	-4.652248e-06	-7.924398e-09	-3.291622e+01	-5.195511e+02
2.900000e-07	-4.598059e-06	-7.867142e-09	-3.253282e+01	-5.163258e+02
3.000000e-07	-4.542301e-06	-7.829433e-09	-3.213831e+01	-5.129938e+02
3.100000e-07	-4.484867e-06	-7.786829e-09	-3.173194e+01	-5.095639e+02
3.200000e-07	-4.425592e-06	-7.721397e-09	-3.131255e+01	-5.060417e+02
3.300000e-07	-4.364719e-06	-7.652286e-09	-3.088185e+01	-5.024296e+02
3.400000e-07	-4.302409e-06	-7.583230e-09	-3.044099e+01	-4.987261e+02
3.500000e-07	-4.238750e-06	-7.562473e-09	-2.999058e+01	-4.949270e+02
3.600000e-07	-4.173488e-06	-7.493819e-09	-2.952883e+01	-4.910253e+02
3.700000e-07	-4.106510e-06	-7.410937e-09	-2.905494e+01	-4.870129e+02
3.800000e-07	-4.038049e-06	-7.369360e-09	-2.857055e+01	-4.828813e+02
3.900000e-07	-3.968200e-06	-7.301535e-09	-2.807635e+01	-4.786224e+02
4.000000e-07	-3.897138e-06	-7.221525e-09	-2.757356e+01	-4.742299e+02
4.100000e-07	-3.824860e-06	-7.144073e-09	-2.706217e+01	-4.696995e+02
4.200000e-07	-3.750975e-06	-7.087865e-09	-2.653941e+01	-4.650289e+02
4.300000e-07	-3.675401e-06	-7.017858e-09	-2.600470e+01	-4.602180e+02
4.400000e-07	-3.598409e-06	-6.939244e-09	-2.545995e+01	-4.552683e+02
4.500000e-07	-3.519937e-06	-6.870317e-09	-2.490474e+01	-4.501822e+02
4.600000e-07	-3.439998e-06	-6.789308e-09	-2.433914e+01	-4.449624e+02
4.700000e-07	-3.358859e-06	-6.700312e-09	-2.376506e+01	-4.396113e+02
4.800000e-07	-3.276559e-06	-6.606457e-09	-2.318276e+01	-4.341302e+02
4.900000e-07	-3.193206e-06	-6.529216e-09	-2.259301e+01	-4.285191e+02
5.000000e-07	-3.108955e-06	-6.451833e-09	-2.199690e+01	-4.227764e+02
5.100000e-07	-3.023721e-06	-6.355365e-09	-2.139385e+01	-4.168993e+02
5.200000e-07	-2.937441e-06	-6.254153e-09	-2.078338e+01	-4.108842e+02
5.300000e-07	-2.850196e-06	-6.157745e-09	-2.016609e+01	-4.047267e+02
5.400000e-07	-2.762047e-06	-6.065743e-09	-1.954241e+01	-3.984227e+02
5.500000e-07	-2.672745e-06	-5.968005e-09	-1.891057e+01	-3.919683e+02
5.600000e-07	-2.582209e-06	-5.861791e-09	-1.827000e+01	-3.853606e+02
5.700000e-07	-2.490711e-06	-5.756063e-09	-1.762262e+01	-3.785977e+02
5.800000e-07	-2.398388e-06	-5.649165e-09	-1.696940e+01	-3.716784e+02
5.900000e-07	-2.305268e-06	-5.543843e-09	-1.631055e+01	-3.646024e+02
6.000000e-07	-2.211327e-06	-5.436837e-09	-1.564588e+01	-3.573693e+02
6.100000e-07	-2.116580e-06	-5.324685e-09	-1.497552e+01	-3.499788e+02
6.200000e-07	-2.021122e-06	-5.208112e-09	-1.430012e+01	-3.424295e+02
6.300000e-07	-1.924928e-06	-5.087244e-09	-1.361951e+01	-3.347191e+02
6.400000e-07	-1.827880e-06	-4.968452e-09	-1.293287e+01	-3.268439e+02
6.500000e-07	-1.730003e-06	-4.848100e-09	-1.224035e+01	-3.187985e+02
6.600000e-07	-1.631462e-06	-4.717957e-09	-1.154314e+01	-3.105765e+02
6.700000e-07	-1.532397e-06	-4.581220e-09	-1.084223e+01	-3.021704e+02
6.800000e-07	-1.432794e-06	-4.448361e-09	-1.013750e+01	-2.935723e+02
6.900000e-07	-1.332661e-06	-4.317816e-09	-9.429023e+00	-2.847741e+02
7.000000e-07	-1.232150e-06	-4.185274e-09	-8.717877e+00	-2.757687e+02
7.100000e-07	-1.131326e-06	-4.046032e-09	-8.004510e+00	-2.665497e+02
7.200000e-07	-1.030198e-06	-3.897012e-09	-7.288994e+00	-2.571122e+02
7.300000e-07	-9.287285e-07	-3.744112e-09	-6.571067e+00	-2.474526e+02
7.400000e-07	-8.268498e-07	-3.590466e-09	-5.850240e+00	-2.375687e+02
7.500000e-07	-7.246540e-07	-3.437018e-09	-5.127171e+00	-2.274592e+02
7.600000e-07	-6.222245e-07	-3.278833e-09	-4.402448e+00	-2.171236e+02
7.700000e-07	-5.196003e-07	-3.113235e-09	-3.676347e+00	-2.065610e+02
7.800000e-07	-4.168582e-07	-2.946419e-09	-2.949412e+00	-1.957704e+02
7.900000e-07	-3.140314e-07	-2.780750e-09	-2.221878e+00	-1.847494e+02
8.000000e-07	-2.111002e-07	-2.611200e-09	-1.493605e+00	-1.734941e+02
8.100000e-07	-1.080967e-07	-2.435793e-09	-7.648205e-01	-1.619987e+02
8.200000e-07	-5.071551e-09	-2.254963e-09	-3.588293e-02	-1.502556e+02
8.300000e-07	9.795416e-08	-2.069398e-09	6.930587e-01	-1.382551e+02
8.400000e-07	2.009793e-07	-1.882007e-09	1.421996e+00	-1.259856e+02
8.500000e-07	3.039767e-07	-1.691979e-09	2.150738e+00	-1.134343e+02
8.600000e-07	4.068737e-07	-1.498565e-09	2.878769e+00	-1.005874e+02
8.700000e-07	5.096953e-07	-1.297250e-09	3.606265e+00	-8.743063e+01
8.800000e-07	6.124463e-07	-1.089743e-09	4.333263e+00	-7.395030e+01
8.900000e-07	7.150381e-07	-8.813661e-10	5.059135e+00	-6.013385e+01
9.000000e-07	8.173632e-07	-6.699555e-10	5.783120e+00	-4.597090e+01
9.100000e-07	9.194220e-07	-4.524574e-10	6.505220e+00	-3.145418e+01
9.200000e-07	1.021152e-06	-2.254359e-10	7.224995e+00	-1.658071e+01
9.300000e-07	1.122441e-06	9.050413e-12	7.941646e+00	-1.352831e+00
9.400000e-07	1.223374e-06	2.477555e-10	8.655786e+00	1.422063e+01
9.500000e-07	1.323960e-06	4.885292e-10	9.367462e+00	3.012338e+01
9.600000e-07	1.424083e-06	7.327682e-10	1.007587e+01	4.633078e+01
9.700000e-07	1.523685e-06	9.842451e-10	1.078058e+01	6.280933e+01
9.800000e-07	1.622702e-06	1.240026e-09	1.148116e+01	7.951651e+01
9.900000e-07	1.721086e-06	1.496146e-09	1.217726e+01	9.640103e+01
1.000000e-06	1.818757e-06	1.752239e-09	1.286831e+01	1.134037e+02
1.010000e-06	1.915562e-06	2.010364e-09	1.355325e+01	1.304588e+02
1.020000e-06	2.011444e-06	2.270241e-09	1.423164e+01	1.474960e+02
1.030000e-06	2.106566e-06	2.530408e-09	1.490466e+01	1.644425e+02
1.040000e-06	2.201052e-06	2.787955e-09	1.557318e+01	1.812258e+02
1.050000e-06	2.294796e-06	3.037793e-09	1.623646e+01	1.977761e+02
1.060000e-06	2.387766e-06	3.281659e-09	1.689424e+01	2.140292e+02
1.070000e-06	2.479990e-06	3.521785e-09	1.754677e+01	2.299285e+02
1.080000e-06	2.571465e-06	3.758611e-09	1.819398e+01	2.454264e+02
1.090000e-06	2.662067e-06	3.987430e-09	1.883502e+01	2.604862e+02
1.100000e-06	2.751538e-06	4.207184e-09	1.946805e+01	2.750813e+02
1.110000e-06	2.839805e-06	4.418954e-09	2.009258e+01	2.891959e+02
1.120000e-06	2.927078e-06	4.625114e-09	2.071006e+01	3.028229e+02
1.130000e-06	3.013464e-06	4.827285e-09	2.132127e+01	3.159631e+02
1.140000e-06	3.098860e-06	5.021808e-09	2.192548e+01	3.286228e+02
1.150000e-06	3.183260e-06	5.206796e-09	2.252264e+01	3.408117e+02
1.160000e-06	3.266686e-06	5.384695e-09	2.311290e+01	3.525410e+02
1.170000e-06	3.349045e-06	5.557511e-09	2.369562e+01	3.638221e+02
1.180000e-06	3.430130e-06	5.723293e-09	2.426932e+01	3.746649e+02
1.190000e-06	3.509850e-06	5.881330e-09	2.483337e+01	3.850774e+02
1.200000e-06	3.588318e-06	6.031618e-09	2.538856e+01	3.950658e+02
1.210000e-06	3.665508e-06	6.176299e-09	2.593470e+01	4.046350e+02
1.220000e-06	3.741425e-06	6.314797e-09	2.647184e+01	4.137892e+02
1.230000e-06	3.815948e-06	6.448497e-09	2.699911e+01	4.225335e+02
1.240000e-06	3.888840e-06	6.577371e-09	2.751485e+01	4.308745e+02
1.250000e-06	3.960205e-06	6.699033e-09	2.801978e+01	4.388217e+02
1.260000e-06	4.030207e-06	6.811745e-09	2.851507e+01	4.463877e+02
1.270000e-06	4.098827e-06	6.918585e-09	2.900058e+01	4.535889e+02
1.280000e-06	4.166046e-06	7.021775e-09	2.947617e+01	4.604446e+02
1.290000e-06	4.231649e-06	7.119287e-09	2.994034e+01	4.669767e+02
1.300000e-06	4.295581e-06	7.211946e-09	3.039268e+01	4.732083e+02
1.310000e-06	4.358090e-06	7.300752e-09	3.083496e+01	4.791625e+02
1.320000e-06	4.419198e-06	7.387735e-09	3.126731e+01	4.848610e+02
1.330000e-06	4.478847e-06	7.473301e-09	3.168935e+01	4.903225e+02
1.340000e-06	4.536805e-06	7.556242e-09	3.209942e+01	4.955622e+02
1.350000e-06	4.592947e-06	7.635145e-09	3.249664e+01	5.005911e+02
1.360000e-06	4.647435e-06	7.707376e-09	3.288216e+01	5.054157e+02
1.370000e-06	4.700300e-06	7.775151e-09	3.325620e+01	5.100384e+02
1.380000e-06	4.751254e-06	7.840995e-09	3.361672e+01	5.144587e+02
1.390000e-06	4.800130e-06	7.905441e-09	3.396253e+01	5.186737e+02
1.400000e-06	4.847172e-06	7.966029e-09	3.429537e+01	5.226795e+02
1.410000e-06	4.892589e-06	8.021760e-09	3.461672e+01	5.264726e+02
1.420000e-06	4.936434e-06	8.074680e-09	3.492693e+01	5.300506e+02
1.430000e-06	4.978475e-06	8.125639e-09	3.522439e+01	5.334130e+02
1.440000e-06	5.018594e-06	8.174458e-09	3.550824e+01	5.365620e+02
1.450000e-06	5.057031e-06	8.220418e-09	3.578019e+01	5.395019e+02
1.460000e-06	5.093812e-06	8.261391e-09	3.604043e+01	5.422393e+02
1.470000e-06	5.128840e-06	8.297686e-09	3.628827e+01	5.447821e+02
1.480000e-06	5.161986e-06	8.331273e-09	3.652279e+01	5.471393e+02
1.490000e-06	5.193243e-06	8.361008e-09	3.674394e+01	5.493202e+02
1.500000e-06	5.222780e-06	8.387891e-09	3.695292e+01	5.513331e+02
1.510000e-06	5.250691e-06	8.413100e-09	3.715040e+01	5.531859e+02
1.520000e-06	5.276682e-06	8.436928e-09	3.733430e+01	5.548847e+02
1.530000e-06	5.300534e-06	8.459893e-09	3.750306e+01	5.564349e+02
1.540000e-06	5.322492e-06	8.481001e-09	3.765842e+01	5.578403e+02
1.550000e-06	5.342714e-06	8.499875e-09	3.780150e+01	5.591040e+02
1.560000e-06	5.361128e-06	8.516834e-09	3.793178e+01	5.602287e+02
1.570000e-06	5.377544e-06	8.531558e-09	3.804793e+01	5.612168e+02
1.580000e-06	5.391932e-06	8.543673e-09	3.814973e+01	5.620709e+02
1.590000e-06	5.404305e-06	8.553225e-09	3.823727e+01	5.627936e+02
1.600000e-06	5.414464e-06	8.561313e-09	3.830915e+01	5.633877e+02
1.610000e-06	5.422463e-06	8.568505e-09	3.836575e+01	5.638561e+02
1.620000e-06	5.428578e-06	8.574440e-09	3.840901e+01	5.642014e+02
1.630000e-06	5.432923e-06	8.581012e-09	3.843976e+01	5.644254e+02
1.640000e-06	5.435368e-06	8.586536e-09	3.845706e+01	5.645296e+02
1.650000e-06	5.435784e-06	8.588774e-09	3.846000e+01	5.645146e+02
1.660000e-06	5.434343e-06	8.584129e-09	3.844980e+01	5.643805e+02
1.670000e-06	5.431265e-06	8.577811e-09	3.842803e+01	5.641270e+02
1.680000e-06	5.426481e-06	8.573480e-09	3.839418e+01	5.637542e+02
1.690000e-06	5.419720e-06	8.565356e-09	3.834634e+01	5.632626e+02
1.700000e-06	5.411166e-06	8.556320e-09	3.828582e+01	5.626543e+02
1.710000e-06	5.401147e-06	8.549893e-09	3.821493e+01	5.619327e+02
1.720000e-06	5.389456e-06	8.552367e-09	3.813222e+01	5.611033e+02
1.730000e-06	5.375730e-06	8.536415e-09	3.803510e+01	5.601734e+02
1.740000e-06	5.359861e-06	8.447497e-09	3.792282e+01	5.591516e+02
1.750000e-06	5.341631e-06	8.433808e-09	3.779383e+01	5.580477e+02
1.760000e-06	5.320686e-06	8.448994e-09	3.764565e+01	5.568710e+02
1.770000e-06	5.297428e-06	8.468743e-09	3.748108e+01	5.556297e+02
1.780000e-06	5.272900e-06	8.552766e-09	3.730754e+01	5.543302e+02
1.790000e-06	5.247613e-06	8.392547e-09	3.712863e+01	5.529752e+02
1.800000e-06	5.220893e-06	8.316619e-09	3.693958e+01	5.515639e+02
1.810000e-06	5.191947e-06	8.412038e-09	3.673477e+01	5.500914e+02
1.820000e-06	5.161105e-06	8.261353e-09	3.651655e+01	5.485488e+02
1.830000e-06	5.128616e-06	8.324284e-09	3.628669e+01	5.469240e+02
1.840000e-06	5.094188e-06	8.410585e-09	3.604309e+01	5.452023e+02
1.850000e-06	5.058165e-06	8.204040e-09	3.578822e+01	5.433682e+02
1.860000e-06	5.020381e-06	8.280591e-09	3.552088e+01	5.414068e+02
1.870000e-06	4.980640e-06	8.281269e-09	3.523971e+01	5.393049e+02
1.880000e-06	4.939270e-06	8.099530e-09	3.494700e+01	5.370524e+02
1.890000e-06	4.896071e-06	8.152655e-09	3.464135e+01	5.346435e+02
1.900000e-06	4.851202e-06	8.081992e-09	3.432389e+01	5.320767e+02
1.910000e-06	4.804514e-06	8.070738e-09	3.399355e+01	5.293551e+02
1.920000e-06	4.755762e-06	8.058317e-09	3.364861e+01	5.264856e+02
1.930000e-06	4.705420e-06	7.906605e-09	3.329243e+01	5.234780e+02
1.940000e-06	4.653314e-06	7.977637e-09	3.292376e+01	5.203437e+02
1.950000e-06	4.599093e-06	7.882782e-09	3.254013e+01	5.170944e+02
1.960000e-06	4.542984e-06	7.768945e-09	3.214314e+01	5.137404e+02
1.970000e-06	4.485163e-06	7.778820e-09	3.173403e+01	5.102900e+02
1.980000e-06	4.425920e-06	7.716605e-09	3.131488e+01	5.067481e+02
1.990000e-06	4.365147e-06	7.706916e-09	3.088488e+01	5.031163e+02
2.000000e-06	4.302546e-06	7.577453e-09	3.044196e+01	4.993925e+02
2.010000e-06	4.238376e-06	7.543634e-09	2.998794e+01	4.955716e+02
2.020000e-06	4.172757e-06	7.521400e-09	2.952366e+01	4.916466e+02
2.030000e-06	4.105681e-06	7.378719e-09	2.904907e+01	4.876090e+02
2.040000e-06	4.037196e-06	7.374575e-09	2.856452e+01	4.834504e+02
2.050000e-06	3.967167e-06	7.320373e-09	2.806904e+01	4.791630e+02
2.060000e-06	3.895571e-06	7.250312e-09	2.756247e+01	4.747410e+02
2.070000e-06	3.822666e-06	7.152341e-09	2.704665e+01	4.701803e+02
2.080000e-06	3.748508e-06	7.064269e-09	2.652196e+01	4.654792e+02
2.090000e-06	3.672924e-06	7.036274e-09	2.598717e+01	4.606380e+02
2.100000e-06	3.595762e-06	6.932431e-09	2.544122e+01	4.556585e+02
2.110000e-06	3.517013e-06	6.856881e-09	2.488405e+01	4.505432e+02
2.120000e-06	3.436998e-06	6.782529e-09	2.431792e+01	4.452948e+02
2.130000e-06	3.355938e-06	6.715146e-09	2.374439e+01	4.399154e+02
2.140000e-06	3.273710e-06	6.625800e-09	2.316260e+01	4.344062e+02
2.150000e-06	3.190386e-06	6.524406e-09	2.257305e+01	4.287666e+02
2.160000e-06	3.106021e-06	6.451901e-09	2.197614e+01	4.229951e+02
2.170000e-06	3.020304e-06	6.354943e-09	2.136966e+01	4.170884e+02
2.180000e-06	2.933276e-06	6.266410e-09	2.075392e+01	4.110428e+02
2.190000e-06	2.845267e-06	6.168590e-09	2.013122e+01	4.048539e+02
2.200000e-06	2.756355e-06	6.081462e-09	1.950214e+01	3.985176e+02
2.210000e-06	2.666432e-06	5.986198e-09	1.886590e+01	3.920302e+02
2.220000e-06	2.575529e-06	5.874748e-09	1.822273e+01	3.853891e+02
2.230000e-06	2.483834e-06	5.772646e-09	1.757396e+01	3.785924e+02
2.240000e-06	2.391340e-06	5.671288e-09	1.691953e+01	3.716392e+02
2.250000e-06	2.297919e-06	5.571597e-09	1.625855e+01	3.645292e+02
2.260000e-06	2.203573e-06	5.456228e-09	1.559102e+01	3.572621e+02
2.270000e-06	2.108318e-06	5.338162e-09	1.491706e+01	3.498373e+02
2.280000e-06	2.012190e-06	5.222846e-09	1.423692e+01	3.422534e+02
2.290000e-06	1.915315e-06	5.105413e-09	1.355150e+01	3.345077e+02
2.300000e-06	1.817905e-06	4.984032e-09	1.286229e+01	3.265962e+02
2.310000e-06	1.720066e-06	4.865782e-09	1.217004e+01	3.185132e+02
2.320000e-06	1.621674e-06	4.744638e-09	1.147389e+01	3.102521e+02
2.330000e-06	1.522759e-06	4.613630e-09	1.077403e+01	3.018052e+02
2.340000e-06	1.423422e-06	4.481606e-09	1.007119e+01	2.931645e+02
2.350000e-06	1.323694e-06	4.347367e-09	9.365582e+00	2.843222e+02
2.360000e-06	1.223577e-06	4.211356e-09	8.657221e+00	2.752711e+02
2.370000e-06	1.123060e-06	4.069978e-09	7.946030e+00	2.660053e+02
2.380000e-06	1.022148e-06	3.923619e-09	7.232038e+00	2.565201e+02
2.390000e-06	9.207355e-07	3.778370e-09	6.514514e+00	2.468123e+02
2.400000e-06	8.188282e-07	3.632331e-09	5.793485e+00	2.368797e+02
2.410000e-06	7.165600e-07	3.480026e-09	5.069903e+00	2.267215e+02
2.420000e-06	6.140518e-07	3.321032e-09	4.344623e+00	2.163369e+02
2.430000e-06	5.113429e-07	3.158981e-09	3.617923e+00	2.057253e+02
2.440000e-06	4.084503e-07	2.998341e-09	2.889924e+00	1.948852e+02
2.450000e-06	3.054230e-07	2.834072e-09	2.160971e+00	1.838140e+02
2.460000e-06	2.022041e-07	2.661009e-09	1.430662e+00	1.725075e+02
2.470000e-06	9.885780e-08	2.484410e-09	6.994522e-01	1.609594e+02
2.480000e-06	-4.538489e-09	2.302271e-09	-3.211134e-02	1.491617e+02
2.490000e-06	-1.079373e-07	2.115422e-09	-7.636929e-01	1.371042e+02
2.500000e-06	-2.112665e-07	1.928658e-09	-1.494782e+00	1.247751e+02
2.510000e-06	-3.145481e-07	1.740289e-09	-2.225534e+00	1.121613e+02
2.520000e-06	-4.177570e-07	1.545352e-09	-2.955771e+00	9.924884e+01
2.530000e-06	-5.207453e-07	1.341122e-09	-3.684448e+00	8.602352e+01
2.540000e-06	-6.234918e-07	1.135134e-09	-4.411414e+00	7.247182e+01
2.550000e-06	-7.260120e-07	9.261076e-10	-5.136779e+00	5.858156e+01
2.560000e-06	-8.282276e-07	7.051503e-10	-5.859989e+00	4.434293e+01
2.570000e-06	-9.301091e-07	4.755779e-10	-6.580835e+00	2.974951e+01
2.580000e-06	-1.031562e-06	2.435940e-10	-7.298647e+00	1.479935e+01
2.590000e-06	-1.132485e-06	1.096614e-11	-8.012713e+00	-5.039140e-01
2.600000e-06	-1.232919e-06	-2.256628e-10	-8.723320e+00	-1.614993e+01
2.610000e-06	-1.332890e-06	-4.673413e-10	-9.430647e+00	-3.212067e+01
2.620000e-06	-1.432367e-06	-7.139410e-10	-1.013448e+01	-4.838965e+01
2.630000e-06	-1.531381e-06	-9.664637e-10	-1.083504e+01	-6.492143e+01
2.640000e-06	-1.629907e-06	-1.222762e-09	-1.153214e+01	-8.167155e+01
2.650000e-06	-1.727813e-06	-1.481198e-09	-1.222486e+01	-9.858697e+01
2.660000e-06	-1.825102e-06	-1.741231e-09	-1.291321e+01	-1.156070e+02
2.670000e-06	-1.921857e-06	-2.004057e-09	-1.359778e+01	-1.326646e+02
2.680000e-06	-2.018066e-06	-2.266060e-09	-1.427850e+01	-1.496889e+02
2.690000e-06	-2.113611e-06	-2.525471e-09	-1.495451e+01	-1.666068e+02
2.700000e-06	-2.208341e-06	-2.781111e-09	-1.562475e+01	-1.833462e+02
2.710000e-06	-2.302149e-06	-3.032256e-09	-1.628848e+01	-1.998384e+02
2.720000e-06	-2.394952e-06	-3.279500e-09	-1.694509e+01	-2.160205e+02
2.730000e-06	-2.486815e-06	-3.520966e-09	-1.759505e+01	-2.318377e+02
2.740000e-06	-2.577814e-06	-3.757243e-09	-1.823890e+01	-2.472449e+02
2.750000e-06	-2.667893e-06	-3.987225e-09	-1.887624e+01	-2.622073e+02
2.760000e-06	-2.757012e-06	-4.211629e-09	-1.950679e+01	-2.767008e+02
2.770000e-06	-2.845287e-06	-4.429916e-09	-2.013137e+01	-2.907115e+02
2.780000e-06	-2.932778e-06	-4.639297e-09	-2.075039e+01	-3.042343e+02
2.790000e-06	-3.019220e-06	-4.839013e-09	-2.136200e+01	-3.172712e+02
2.800000e-06	-3.104396e-06	-5.032172e-09	-2.196465e+01	-3.298295e+02
2.810000e-06	-3.188400e-06	-5.216912e-09	-2.255900e+01	-3.419192e+02
2.820000e-06	-3.271331e-06	-5.391604e-09	-2.314577e+01	-3.535520e+02
2.830000e-06	-3.353221e-06	-5.560283e-09	-2.372516e+01	-3.647387e+02
2.840000e-06	-3.434045e-06	-5.723196e-09	-2.429702e+01	-3.754890e+02
2.850000e-06	-3.513690e-06	-5.878976e-09	-2.486054e+01	-3.858105e+02
2.860000e-06	-3.591917e-06	-6.028266e-09	-2.541402e+01	-3.957091e+02
2.870000e-06	-3.668598e-06	-6.173468e-09	-2.595657e+01	-4.051893e+02
2.880000e-06	-3.743835e-06	-6.314277e-09	-2.648889e+01	-4.142556e+02
2.890000e-06	-3.817674e-06	-6.449398e-09	-2.701133e+01	-4.229132e+02
2.900000e-06	-3.890166e-06	-6.578797e-09	-2.752423e+01	-4.311692e+02
2.910000e-06	-3.961365e-06	-6.702189e-09	-2.802799e+01	-4.390338e+02
2.920000e-06	-4.030995e-06	-6.817351e-09	-2.852064e+01	-4.465206e+02
2.930000e-06	-4.098992e-06	-6.925415e-09	-2.900175e+01	-4.536463e+02
2.940000e-06	-4.165572e-06	-7.029014e-09	-2.947282e+01	-4.604311e+02
