# Temperatura_=_65.78
# Concentracion g/m^3_=_15000.0
# C_Vs_to_Am_M_A/Vsm_=_65563218390.804596
# pendiente_HvsI_1/m_=_3716.3
# ordenada_HvsI_A/m_=_1297.0
# frecuencia_Hz_=_301595.66557387885

Tiempo_(s)	Campo_(V.s)	Magnetizacion_(V.s)	Campo_(kA/m)	Magnetizacion_(A/m)
0.000000e+00	-5.414074e-06	-9.014468e-09	-3.833868e+01	-5.890226e+02
1.000000e-08	-5.411602e-06	-9.010869e-09	-3.832118e+01	-5.887926e+02
2.000000e-08	-5.407341e-06	-9.004875e-09	-3.829100e+01	-5.884335e+02
3.000000e-08	-5.401466e-06	-8.998245e-09	-3.824940e+01	-5.879427e+02
4.000000e-08	-5.393975e-06	-8.987977e-09	-3.819636e+01	-5.873199e+02
5.000000e-08	-5.384626e-06	-8.973030e-09	-3.813015e+01	-5.865683e+02
6.000000e-08	-5.373286e-06	-8.956110e-09	-3.804985e+01	-5.856944e+02
7.000000e-08	-5.360042e-06	-8.939668e-09	-3.795607e+01	-5.847084e+02
8.000000e-08	-5.344694e-06	-8.941233e-09	-3.784739e+01	-5.836235e+02
9.000000e-08	-5.327085e-06	-8.945114e-09	-3.772269e+01	-5.824543e+02
1.000000e-07	-5.307383e-06	-8.919751e-09	-3.758317e+01	-5.812159e+02
1.100000e-07	-5.285748e-06	-8.887734e-09	-3.742997e+01	-5.799219e+02
1.200000e-07	-5.262367e-06	-8.836753e-09	-3.726440e+01	-5.785824e+02
1.300000e-07	-5.237366e-06	-8.776600e-09	-3.708736e+01	-5.772031e+02
1.400000e-07	-5.210775e-06	-8.808430e-09	-3.689906e+01	-5.757836e+02
1.500000e-07	-5.182623e-06	-8.796211e-09	-3.669971e+01	-5.743176e+02
1.600000e-07	-5.152964e-06	-8.737117e-09	-3.648968e+01	-5.727926e+02
1.700000e-07	-5.121757e-06	-8.754392e-09	-3.626870e+01	-5.711910e+02
1.800000e-07	-5.088503e-06	-8.692042e-09	-3.603322e+01	-5.694917e+02
1.900000e-07	-5.053346e-06	-8.631243e-09	-3.578426e+01	-5.676722e+02
2.000000e-07	-5.016704e-06	-8.653626e-09	-3.552479e+01	-5.657105e+02
2.100000e-07	-4.978304e-06	-8.597315e-09	-3.525286e+01	-5.635873e+02
2.200000e-07	-4.937989e-06	-8.522758e-09	-3.496738e+01	-5.612879e+02
2.300000e-07	-4.895784e-06	-8.502122e-09	-3.466851e+01	-5.588035e+02
2.400000e-07	-4.851700e-06	-8.472356e-09	-3.435635e+01	-5.561317e+02
2.500000e-07	-4.805815e-06	-8.444727e-09	-3.403142e+01	-5.532766e+02
2.600000e-07	-4.757938e-06	-8.391780e-09	-3.369239e+01	-5.502477e+02
2.700000e-07	-4.707931e-06	-8.332395e-09	-3.333827e+01	-5.470588e+02
2.800000e-07	-4.655929e-06	-8.273636e-09	-3.297003e+01	-5.437256e+02
2.900000e-07	-4.602060e-06	-8.207374e-09	-3.258857e+01	-5.402645e+02
3.000000e-07	-4.546566e-06	-8.171392e-09	-3.219560e+01	-5.366900e+02
3.100000e-07	-4.489395e-06	-8.141594e-09	-3.179076e+01	-5.330134e+02
3.200000e-07	-4.430468e-06	-8.081540e-09	-3.137347e+01	-5.292418e+02
3.300000e-07	-4.369938e-06	-7.999039e-09	-3.094484e+01	-5.253772e+02
3.400000e-07	-4.307926e-06	-7.939999e-09	-3.050572e+01	-5.214172e+02
3.500000e-07	-4.244525e-06	-7.892872e-09	-3.005675e+01	-5.173554e+02
3.600000e-07	-4.179503e-06	-7.824939e-09	-2.959632e+01	-5.131824e+02
3.700000e-07	-4.112730e-06	-7.753141e-09	-2.912348e+01	-5.088877e+02
3.800000e-07	-4.044471e-06	-7.683886e-09	-2.864012e+01	-5.044610e+02
3.900000e-07	-3.974848e-06	-7.611475e-09	-2.814709e+01	-4.998932e+02
4.000000e-07	-3.903916e-06	-7.539107e-09	-2.764480e+01	-4.951780e+02
4.100000e-07	-3.831760e-06	-7.470010e-09	-2.713384e+01	-4.903119e+02
4.200000e-07	-3.758181e-06	-7.399631e-09	-2.661281e+01	-4.852946e+02
4.300000e-07	-3.682979e-06	-7.312401e-09	-2.608028e+01	-4.801284e+02
4.400000e-07	-3.606259e-06	-7.226807e-09	-2.553700e+01	-4.748177e+02
4.500000e-07	-3.528062e-06	-7.152868e-09	-2.498327e+01	-4.693677e+02
4.600000e-07	-3.448440e-06	-7.077851e-09	-2.441944e+01	-4.637834e+02
4.700000e-07	-3.367581e-06	-6.990042e-09	-2.384685e+01	-4.580687e+02
4.800000e-07	-3.285597e-06	-6.891667e-09	-2.326630e+01	-4.522255e+02
4.900000e-07	-3.202533e-06	-6.798550e-09	-2.267809e+01	-4.462535e+02
5.000000e-07	-3.118389e-06	-6.703875e-09	-2.208225e+01	-4.401499e+02
5.100000e-07	-3.033251e-06	-6.608993e-09	-2.147936e+01	-4.339100e+02
5.200000e-07	-2.947210e-06	-6.511676e-09	-2.087008e+01	-4.275277e+02
5.300000e-07	-2.860254e-06	-6.408924e-09	-2.025431e+01	-4.209961e+02
5.400000e-07	-2.772290e-06	-6.302451e-09	-1.963142e+01	-4.143088e+02
5.500000e-07	-2.683240e-06	-6.195989e-09	-1.900083e+01	-4.074600e+02
5.600000e-07	-2.593086e-06	-6.092893e-09	-1.836242e+01	-4.004457e+02
5.700000e-07	-2.501839e-06	-5.986345e-09	-1.771627e+01	-3.932635e+02
5.800000e-07	-2.409669e-06	-5.871706e-09	-1.706359e+01	-3.859126e+02
5.900000e-07	-2.316694e-06	-5.751940e-09	-1.640521e+01	-3.783937e+02
6.000000e-07	-2.222881e-06	-5.634331e-09	-1.574089e+01	-3.707081e+02
6.100000e-07	-2.128334e-06	-5.517564e-09	-1.507137e+01	-3.628569e+02
6.200000e-07	-2.033122e-06	-5.398160e-09	-1.439714e+01	-3.548410e+02
6.300000e-07	-1.937157e-06	-5.271755e-09	-1.371759e+01	-3.466596e+02
6.400000e-07	-1.840374e-06	-5.140290e-09	-1.303224e+01	-3.383102e+02
6.500000e-07	-1.742784e-06	-5.009303e-09	-1.234118e+01	-3.297884e+02
6.600000e-07	-1.644522e-06	-4.875794e-09	-1.164536e+01	-3.210882e+02
6.700000e-07	-1.545620e-06	-4.739181e-09	-1.094500e+01	-3.122020e+02
6.800000e-07	-1.446093e-06	-4.598807e-09	-1.024022e+01	-3.031214e+02
6.900000e-07	-1.346132e-06	-4.455036e-09	-9.532365e+00	-2.938379e+02
7.000000e-07	-1.245838e-06	-4.309516e-09	-8.822156e+00	-2.843433e+02
7.100000e-07	-1.145211e-06	-4.162022e-09	-8.109580e+00	-2.746309e+02
7.200000e-07	-1.044212e-06	-4.009532e-09	-7.394381e+00	-2.646951e+02
7.300000e-07	-9.428568e-07	-3.852162e-09	-6.676652e+00	-2.545321e+02
7.400000e-07	-8.411165e-07	-3.691323e-09	-5.956199e+00	-2.441400e+02
7.500000e-07	-7.390244e-07	-3.526870e-09	-5.233253e+00	-2.335178e+02
7.600000e-07	-6.367142e-07	-3.359025e-09	-4.508764e+00	-2.226655e+02
7.700000e-07	-5.342554e-07	-3.187555e-09	-3.783223e+00	-2.115832e+02
7.800000e-07	-4.316548e-07	-3.014348e-09	-3.056677e+00	-2.002707e+02
7.900000e-07	-3.289396e-07	-2.838226e-09	-2.329320e+00	-1.887261e+02
8.000000e-07	-2.261379e-07	-2.657481e-09	-1.601350e+00	-1.769462e+02
8.100000e-07	-1.232249e-07	-2.473676e-09	-8.725925e-01	-1.649255e+02
8.200000e-07	-2.027793e-08	-2.287430e-09	-1.435941e-01	-1.526559e+02
8.300000e-07	8.270968e-08	-2.098133e-09	5.856921e-01	-1.401271e+02
8.400000e-07	1.857376e-07	-1.903189e-09	1.315263e+00	-1.273265e+02
8.500000e-07	2.887105e-07	-1.702950e-09	2.044446e+00	-1.142395e+02
8.600000e-07	3.915977e-07	-1.501035e-09	2.773021e+00	-1.008502e+02
8.700000e-07	4.944066e-07	-1.293918e-09	3.501041e+00	-8.714213e+01
8.800000e-07	5.970812e-07	-1.078575e-09	4.228111e+00	-7.309891e+01
8.900000e-07	6.995616e-07	-8.567647e-10	4.953805e+00	-5.870535e+01
9.000000e-07	8.018403e-07	-6.309484e-10	5.678072e+00	-4.394860e+01
9.100000e-07	9.038311e-07	-4.020813e-10	6.400299e+00	-2.881930e+01
9.200000e-07	1.005476e-06	-1.681705e-10	7.120074e+00	-1.331296e+01
9.300000e-07	1.106777e-06	7.185717e-11	7.837424e+00	2.568739e+00
9.400000e-07	1.207656e-06	3.185628e-10	8.551775e+00	1.881662e+01
9.500000e-07	1.308065e-06	5.704165e-10	9.262804e+00	3.541287e+01
9.600000e-07	1.408097e-06	8.262124e-10	9.971160e+00	5.233009e+01
9.700000e-07	1.507745e-06	1.086901e-09	1.067680e+01	6.953082e+01
9.800000e-07	1.606889e-06	1.350517e-09	1.137886e+01	8.696744e+01
9.900000e-07	1.705364e-06	1.615759e-09	1.207620e+01	1.045827e+02
1.000000e-06	1.802981e-06	1.882081e-09	1.276745e+01	1.223109e+02
1.010000e-06	1.899698e-06	2.149724e-09	1.345233e+01	1.400796e+02
1.020000e-06	1.995613e-06	2.419120e-09	1.413153e+01	1.578119e+02
1.030000e-06	2.090787e-06	2.687691e-09	1.480549e+01	1.754293e+02
1.040000e-06	2.185233e-06	2.954304e-09	1.547429e+01	1.928545e+02
1.050000e-06	2.278990e-06	3.215046e-09	1.613821e+01	2.100146e+02
1.060000e-06	2.372005e-06	3.468583e-09	1.679688e+01	2.268436e+02
1.070000e-06	2.464246e-06	3.715984e-09	1.745007e+01	2.432847e+02
1.080000e-06	2.555758e-06	3.958754e-09	1.809809e+01	2.592924e+02
1.090000e-06	2.646414e-06	4.196266e-09	1.874005e+01	2.748326e+02
1.100000e-06	2.735887e-06	4.424894e-09	1.937364e+01	2.898831e+02
1.110000e-06	2.824120e-06	4.643693e-09	1.999844e+01	3.044327e+02
1.120000e-06	2.911389e-06	4.853989e-09	2.061642e+01	3.184795e+02
1.130000e-06	2.997798e-06	5.059412e-09	2.122831e+01	3.320290e+02
1.140000e-06	3.083289e-06	5.259960e-09	2.183369e+01	3.450915e+02
1.150000e-06	3.167805e-06	5.453303e-09	2.243218e+01	3.576799e+02
1.160000e-06	3.251416e-06	5.638630e-09	2.302425e+01	3.698076e+02
1.170000e-06	3.333994e-06	5.817410e-09	2.360901e+01	3.814867e+02
1.180000e-06	3.415214e-06	5.988748e-09	2.418416e+01	3.927268e+02
1.190000e-06	3.495105e-06	6.152559e-09	2.474989e+01	4.035351e+02
1.200000e-06	3.573771e-06	6.309993e-09	2.530694e+01	4.139159e+02
1.210000e-06	3.651175e-06	6.461219e-09	2.585506e+01	4.238720e+02
1.220000e-06	3.727297e-06	6.605447e-09	2.639411e+01	4.334055e+02
1.230000e-06	3.801993e-06	6.743316e-09	2.692305e+01	4.425194e+02
1.240000e-06	3.874982e-06	6.875936e-09	2.743991e+01	4.512189e+02
1.250000e-06	3.946401e-06	7.001324e-09	2.794565e+01	4.595123e+02
1.260000e-06	4.016481e-06	7.119491e-09	2.844191e+01	4.674115e+02
1.270000e-06	4.085243e-06	7.232221e-09	2.892883e+01	4.749325e+02
1.280000e-06	4.152700e-06	7.340580e-09	2.940651e+01	4.820948e+02
1.290000e-06	4.218533e-06	7.443651e-09	2.987270e+01	4.889204e+02
1.300000e-06	4.282601e-06	7.542005e-09	3.032638e+01	4.954325e+02
1.310000e-06	4.345112e-06	7.635299e-09	3.076904e+01	5.016544e+02
1.320000e-06	4.406192e-06	7.723213e-09	3.120157e+01	5.076077e+02
1.330000e-06	4.465962e-06	7.808092e-09	3.162482e+01	5.133113e+02
1.340000e-06	4.524176e-06	7.892043e-09	3.203705e+01	5.187804e+02
1.350000e-06	4.580528e-06	7.974196e-09	3.243609e+01	5.240262e+02
1.360000e-06	4.635173e-06	8.051286e-09	3.282305e+01	5.290558e+02
1.370000e-06	4.688180e-06	8.122960e-09	3.319841e+01	5.338725e+02
1.380000e-06	4.739316e-06	8.191470e-09	3.356052e+01	5.384771e+02
1.390000e-06	4.788383e-06	8.257857e-09	3.390797e+01	5.428683e+02
1.400000e-06	4.835579e-06	8.321093e-09	3.424219e+01	5.470443e+02
1.410000e-06	4.881192e-06	8.380451e-09	3.456518e+01	5.510034e+02
1.420000e-06	4.925286e-06	8.435378e-09	3.487743e+01	5.547450e+02
1.430000e-06	4.967635e-06	8.487464e-09	3.517732e+01	5.582698e+02
1.440000e-06	5.008070e-06	8.538375e-09	3.546365e+01	5.615805e+02
1.450000e-06	5.046730e-06	8.587353e-09	3.573741e+01	5.646810e+02
1.460000e-06	5.083750e-06	8.632164e-09	3.599956e+01	5.675764e+02
1.470000e-06	5.119126e-06	8.671065e-09	3.625007e+01	5.702727e+02
1.480000e-06	5.152601e-06	8.705736e-09	3.648711e+01	5.727756e+02
1.490000e-06	5.184113e-06	8.737741e-09	3.671026e+01	5.750908e+02
1.500000e-06	5.213871e-06	8.766132e-09	3.692099e+01	5.772236e+02
1.510000e-06	5.241937e-06	8.792707e-09	3.711973e+01	5.791785e+02
1.520000e-06	5.268155e-06	8.818298e-09	3.730539e+01	5.809597e+02
1.530000e-06	5.292336e-06	8.842565e-09	3.747662e+01	5.825713e+02
1.540000e-06	5.314591e-06	8.864829e-09	3.763421e+01	5.840175e+02
1.550000e-06	5.335129e-06	8.884729e-09	3.777965e+01	5.853033e+02
1.560000e-06	5.353868e-06	8.901500e-09	3.791235e+01	5.864343e+02
1.570000e-06	5.370601e-06	8.914849e-09	3.803084e+01	5.874169e+02
1.580000e-06	5.385325e-06	8.926598e-09	3.813511e+01	5.882581e+02
1.590000e-06	5.398056e-06	8.936589e-09	3.822526e+01	5.889652e+02
1.600000e-06	5.408547e-06	8.946217e-09	3.829955e+01	5.895448e+02
1.610000e-06	5.416836e-06	8.954553e-09	3.835824e+01	5.900027e+02
1.620000e-06	5.423227e-06	8.959603e-09	3.840350e+01	5.903429e+02
1.630000e-06	5.427829e-06	8.963528e-09	3.843609e+01	5.905674e+02
1.640000e-06	5.430520e-06	8.966221e-09	3.845514e+01	5.906759e+02
1.650000e-06	5.431206e-06	8.966984e-09	3.846000e+01	5.906662e+02
1.660000e-06	5.430017e-06	8.965474e-09	3.845158e+01	5.905347e+02
1.670000e-06	5.427121e-06	8.963125e-09	3.843107e+01	5.902770e+02
1.680000e-06	5.422571e-06	8.958928e-09	3.839886e+01	5.898895e+02
1.690000e-06	5.416187e-06	8.952173e-09	3.835365e+01	5.893699e+02
1.700000e-06	5.407962e-06	8.942683e-09	3.829540e+01	5.887188e+02
1.710000e-06	5.398159e-06	8.932166e-09	3.822598e+01	5.879400e+02
1.720000e-06	5.386668e-06	8.926351e-09	3.814462e+01	5.870408e+02
1.730000e-06	5.373152e-06	8.901462e-09	3.804890e+01	5.860321e+02
1.740000e-06	5.357536e-06	8.860010e-09	3.793832e+01	5.849275e+02
1.750000e-06	5.339669e-06	8.842307e-09	3.781180e+01	5.837419e+02
1.760000e-06	5.319183e-06	8.830600e-09	3.766673e+01	5.824902e+02
1.770000e-06	5.296255e-06	8.848787e-09	3.750437e+01	5.811854e+02
1.780000e-06	5.271903e-06	8.856769e-09	3.733193e+01	5.798367e+02
1.790000e-06	5.246883e-06	8.767479e-09	3.715476e+01	5.784487e+02
1.800000e-06	5.220539e-06	8.750682e-09	3.696820e+01	5.770197e+02
1.810000e-06	5.191921e-06	8.746102e-09	3.676555e+01	5.755419e+02
1.820000e-06	5.161353e-06	8.689057e-09	3.654909e+01	5.740018e+02
1.830000e-06	5.129218e-06	8.732270e-09	3.632153e+01	5.723808e+02
1.840000e-06	5.095207e-06	8.709905e-09	3.608069e+01	5.706573e+02
1.850000e-06	5.059450e-06	8.645567e-09	3.582749e+01	5.688088e+02
1.860000e-06	5.021948e-06	8.678004e-09	3.556192e+01	5.668136e+02
1.870000e-06	4.982591e-06	8.632757e-09	3.528322e+01	5.646534e+02
1.880000e-06	4.941509e-06	8.574510e-09	3.499231e+01	5.623145e+02
1.890000e-06	4.898584e-06	8.552409e-09	3.468834e+01	5.597896e+02
1.900000e-06	4.853993e-06	8.480211e-09	3.437258e+01	5.570777e+02
1.910000e-06	4.807657e-06	8.456360e-09	3.404446e+01	5.541840e+02
1.920000e-06	4.759281e-06	8.402060e-09	3.370189e+01	5.511192e+02
1.930000e-06	4.709194e-06	8.353845e-09	3.334721e+01	5.478976e+02
1.940000e-06	4.657408e-06	8.350334e-09	3.298050e+01	5.445354e+02
1.950000e-06	4.603576e-06	8.261198e-09	3.259930e+01	5.410485e+02
1.960000e-06	4.547753e-06	8.180157e-09	3.220401e+01	5.374510e+02
1.970000e-06	4.490130e-06	8.131544e-09	3.179596e+01	5.337533e+02
1.980000e-06	4.431080e-06	8.093309e-09	3.137781e+01	5.299614e+02
1.990000e-06	4.370620e-06	8.048786e-09	3.094967e+01	5.260764e+02
2.000000e-06	4.308440e-06	7.966145e-09	3.050936e+01	5.220949e+02
2.010000e-06	4.244610e-06	7.916025e-09	3.005735e+01	5.180097e+02
2.020000e-06	4.179256e-06	7.845987e-09	2.959457e+01	5.138112e+02
2.030000e-06	4.112461e-06	7.763131e-09	2.912157e+01	5.094888e+02
2.040000e-06	4.044173e-06	7.710999e-09	2.863800e+01	5.050322e+02
2.050000e-06	3.974336e-06	7.649454e-09	2.814346e+01	5.004329e+02
2.060000e-06	3.903032e-06	7.570862e-09	2.763854e+01	4.956852e+02
2.070000e-06	3.830372e-06	7.480507e-09	2.712401e+01	4.907863e+02
2.080000e-06	3.756419e-06	7.414199e-09	2.660033e+01	4.857364e+02
2.090000e-06	3.681032e-06	7.347728e-09	2.606649e+01	4.805385e+02
2.100000e-06	3.604116e-06	7.259360e-09	2.552183e+01	4.751972e+02
2.110000e-06	3.525709e-06	7.165855e-09	2.496660e+01	4.697177e+02
2.120000e-06	3.445966e-06	7.082460e-09	2.440192e+01	4.641048e+02
2.130000e-06	3.365087e-06	7.002327e-09	2.382919e+01	4.583622e+02
2.140000e-06	3.283077e-06	6.909574e-09	2.324845e+01	4.524911e+02
2.150000e-06	3.199985e-06	6.824596e-09	2.266005e+01	4.464909e+02
2.160000e-06	3.115841e-06	6.732344e-09	2.206420e+01	4.403582e+02
2.170000e-06	3.030453e-06	6.631557e-09	2.145955e+01	4.340881e+02
2.180000e-06	2.943783e-06	6.529500e-09	2.084581e+01	4.276740e+02
2.190000e-06	2.855967e-06	6.433028e-09	2.022396e+01	4.211092e+02
2.200000e-06	2.767198e-06	6.342653e-09	1.959536e+01	4.143874e+02
2.210000e-06	2.677483e-06	6.239194e-09	1.896006e+01	4.075031e+02
2.220000e-06	2.586846e-06	6.125665e-09	1.831824e+01	4.004526e+02
2.230000e-06	2.495382e-06	6.010649e-09	1.767055e+01	3.932339e+02
2.240000e-06	2.403076e-06	5.899953e-09	1.701690e+01	3.858467e+02
2.250000e-06	2.309884e-06	5.787280e-09	1.635698e+01	3.782915e+02
2.260000e-06	2.215817e-06	5.670720e-09	1.569086e+01	3.705700e+02
2.270000e-06	2.120824e-06	5.549780e-09	1.501819e+01	3.626832e+02
2.280000e-06	2.024861e-06	5.429780e-09	1.433865e+01	3.546316e+02
2.290000e-06	1.928172e-06	5.305774e-09	1.365397e+01	3.464141e+02
2.300000e-06	1.830980e-06	5.177143e-09	1.296572e+01	3.380278e+02
2.310000e-06	1.733265e-06	5.049485e-09	1.227377e+01	3.294681e+02
2.320000e-06	1.634976e-06	4.913644e-09	1.157775e+01	3.207284e+02
2.330000e-06	1.536144e-06	4.772715e-09	1.087790e+01	3.118009e+02
2.340000e-06	1.436832e-06	4.631987e-09	1.017464e+01	3.026772e+02
2.350000e-06	1.337089e-06	4.492928e-09	9.468325e+00	2.933487e+02
2.360000e-06	1.236983e-06	4.352832e-09	8.759448e+00	2.838077e+02
2.370000e-06	1.136574e-06	4.207448e-09	8.048423e+00	2.740474e+02
2.380000e-06	1.035782e-06	4.055033e-09	7.334682e+00	2.640629e+02
2.390000e-06	9.345838e-07	3.901345e-09	6.618069e+00	2.538506e+02
2.400000e-06	8.330307e-07	3.747234e-09	5.898940e+00	2.434089e+02
2.410000e-06	7.311371e-07	3.588156e-09	5.177402e+00	2.327370e+02
2.420000e-06	6.288565e-07	3.420796e-09	4.453122e+00	2.218351e+02
2.430000e-06	5.262228e-07	3.247168e-09	3.726342e+00	2.107032e+02
2.440000e-06	4.234186e-07	3.073734e-09	2.998354e+00	1.993408e+02
2.450000e-06	3.204730e-07	2.898960e-09	2.269366e+00	1.877458e+02
2.460000e-06	2.172830e-07	2.720874e-09	1.538646e+00	1.759145e+02
2.470000e-06	1.138863e-07	2.540247e-09	8.064631e-01	1.638409e+02
2.480000e-06	1.045225e-08	2.352952e-09	7.401552e-02	1.515164e+02
2.490000e-06	-9.292735e-08	2.158350e-09	-6.580465e-01	1.389301e+02
2.500000e-06	-1.962488e-07	1.960097e-09	-1.389697e+00	1.260691e+02
2.510000e-06	-2.995341e-07	1.759931e-09	-2.121091e+00	1.129183e+02
2.520000e-06	-4.027399e-07	1.555793e-09	-2.851922e+00	9.946181e+01
2.530000e-06	-5.057693e-07	1.345285e-09	-3.581504e+00	8.568294e+01
2.540000e-06	-6.086191e-07	1.130921e-09	-4.309815e+00	7.156553e+01
2.550000e-06	-7.111553e-07	9.109257e-10	-5.035904e+00	5.709479e+01
2.560000e-06	-8.132523e-07	6.819174e-10	-5.758884e+00	4.225851e+01
2.570000e-06	-9.149479e-07	4.473096e-10	-6.479021e+00	2.704827e+01
2.580000e-06	-1.016157e-06	2.090794e-10	-7.195716e+00	1.146078e+01
2.590000e-06	-1.116926e-06	-3.484750e-11	-7.909290e+00	-4.500777e+00
2.600000e-06	-1.217330e-06	-2.840034e-10	-8.620281e+00	-2.082546e+01
2.610000e-06	-1.317326e-06	-5.370668e-10	-9.328379e+00	-3.749347e+01
2.620000e-06	-1.416854e-06	-7.961937e-10	-1.003317e+01	-5.447529e+01
2.630000e-06	-1.515868e-06	-1.062098e-09	-1.073432e+01	-7.173125e+01
2.640000e-06	-1.614398e-06	-1.332896e-09	-1.143204e+01	-8.921162e+01
2.650000e-06	-1.712398e-06	-1.605764e-09	-1.212601e+01	-1.068572e+02
2.660000e-06	-1.809752e-06	-1.879402e-09	-1.281540e+01	-1.246007e+02
2.670000e-06	-1.906469e-06	-2.152922e-09	-1.350028e+01	-1.423685e+02
2.680000e-06	-2.002663e-06	-2.422500e-09	-1.418146e+01	-1.600831e+02
2.690000e-06	-2.098327e-06	-2.690082e-09	-1.485888e+01	-1.776661e+02
2.700000e-06	-2.193233e-06	-2.956829e-09	-1.553094e+01	-1.950408e+02
2.710000e-06	-2.287077e-06	-3.220336e-09	-1.619548e+01	-2.121355e+02
2.720000e-06	-2.379885e-06	-3.477295e-09	-1.685268e+01	-2.288861e+02
2.730000e-06	-2.471851e-06	-3.726684e-09	-1.750392e+01	-2.452382e+02
2.740000e-06	-2.562964e-06	-3.969932e-09	-1.814912e+01	-2.611485e+02
2.750000e-06	-2.653100e-06	-4.205575e-09	-1.878739e+01	-2.765855e+02
2.760000e-06	-2.742228e-06	-4.435688e-09	-1.941854e+01	-2.915297e+02
2.770000e-06	-2.830562e-06	-4.659957e-09	-2.004406e+01	-3.059718e+02
2.780000e-06	-2.918196e-06	-4.875781e-09	-2.066462e+01	-3.199117e+02
2.790000e-06	-3.004693e-06	-5.081774e-09	-2.127713e+01	-3.333561e+02
2.800000e-06	-3.089847e-06	-5.280536e-09	-2.188013e+01	-3.463162e+02
2.810000e-06	-3.173896e-06	-5.472491e-09	-2.247531e+01	-3.588051e+02
2.820000e-06	-3.256933e-06	-5.655266e-09	-2.306332e+01	-3.708361e+02
2.830000e-06	-3.338887e-06	-5.830949e-09	-2.364366e+01	-3.824207e+02
2.840000e-06	-3.419756e-06	-5.999744e-09	-2.421632e+01	-3.935682e+02
2.850000e-06	-3.499505e-06	-6.162729e-09	-2.478104e+01	-4.042849e+02
2.860000e-06	-3.577832e-06	-6.319288e-09	-2.533570e+01	-4.145749e+02
2.870000e-06	-3.654625e-06	-6.469471e-09	-2.587950e+01	-4.244405e+02
2.880000e-06	-3.729963e-06	-6.614223e-09	-2.641299e+01	-4.338842e+02
2.890000e-06	-3.803890e-06	-6.752442e-09	-2.693649e+01	-4.429091e+02
2.900000e-06	-3.876524e-06	-6.885602e-09	-2.745083e+01	-4.515211e+02
2.910000e-06	-3.947847e-06	-7.014223e-09	-2.795589e+01	-4.597291e+02
2.920000e-06	-4.017601e-06	-7.136672e-09	-2.844984e+01	-4.675462e+02
2.930000e-06	-4.085778e-06	-7.252803e-09	-2.893262e+01	-4.749890e+02
2.940000e-06	-4.152512e-06	-7.362692e-09	-2.940519e+01	-4.820775e+02
