# Temperatura_=_83.98
# Concentracion g/m^3_=_15000.0
# C_Vs_to_Am_M_A/Vsm_=_65563218390.804596
# pendiente_HvsI_1/m_=_3716.3
# ordenada_HvsI_A/m_=_1297.0
# frecuencia_Hz_=_301599.0593951115

Tiempo_(s)	Campo_(V.s)	Magnetizacion_(V.s)	Campo_(kA/m)	Magnetizacion_(A/m)
0.000000e+00	-5.407210e-06	-9.942446e-09	-3.833537e+01	-6.495233e+02
1.000000e-08	-5.404873e-06	-9.940377e-09	-3.831880e+01	-6.492740e+02
2.000000e-08	-5.400666e-06	-9.934895e-09	-3.828898e+01	-6.488728e+02
3.000000e-08	-5.394849e-06	-9.929098e-09	-3.824774e+01	-6.483191e+02
4.000000e-08	-5.387455e-06	-9.919255e-09	-3.819532e+01	-6.476153e+02
5.000000e-08	-5.378330e-06	-9.902903e-09	-3.813062e+01	-6.467670e+02
6.000000e-08	-5.367135e-06	-9.883021e-09	-3.805125e+01	-6.457828e+02
7.000000e-08	-5.353969e-06	-9.861569e-09	-3.795791e+01	-6.446739e+02
8.000000e-08	-5.338818e-06	-9.862837e-09	-3.785050e+01	-6.434527e+02
9.000000e-08	-5.321402e-06	-9.885028e-09	-3.772702e+01	-6.421322e+02
1.000000e-07	-5.301851e-06	-9.848309e-09	-3.758841e+01	-6.407239e+02
1.100000e-07	-5.280362e-06	-9.792273e-09	-3.743606e+01	-6.392369e+02
1.200000e-07	-5.257154e-06	-9.740317e-09	-3.727153e+01	-6.376766e+02
1.300000e-07	-5.232402e-06	-9.650907e-09	-3.709604e+01	-6.360441e+02
1.400000e-07	-5.205964e-06	-9.707359e-09	-3.690861e+01	-6.343357e+02
1.500000e-07	-5.177858e-06	-9.724100e-09	-3.670935e+01	-6.325432e+02
1.600000e-07	-5.148353e-06	-9.598831e-09	-3.650016e+01	-6.306548e+02
1.700000e-07	-5.117352e-06	-9.663861e-09	-3.628037e+01	-6.286558e+02
1.800000e-07	-5.084296e-06	-9.612942e-09	-3.604602e+01	-6.265300e+02
1.900000e-07	-5.049275e-06	-9.439034e-09	-3.579773e+01	-6.242614e+02
2.000000e-07	-5.012773e-06	-9.478794e-09	-3.553894e+01	-6.218357e+02
2.100000e-07	-4.974520e-06	-9.424421e-09	-3.526774e+01	-6.192408e+02
2.200000e-07	-4.934404e-06	-9.345026e-09	-3.498333e+01	-6.164687e+02
2.300000e-07	-4.892393e-06	-9.401871e-09	-3.468549e+01	-6.135151e+02
2.400000e-07	-4.848417e-06	-9.335559e-09	-3.437371e+01	-6.103798e+02
2.500000e-07	-4.802641e-06	-9.236469e-09	-3.404918e+01	-6.070664e+02
2.600000e-07	-4.754971e-06	-9.181921e-09	-3.371121e+01	-6.035813e+02
2.700000e-07	-4.705221e-06	-9.132983e-09	-3.335850e+01	-5.999329e+02
2.800000e-07	-4.653366e-06	-9.106316e-09	-3.299087e+01	-5.961304e+02
2.900000e-07	-4.599615e-06	-9.021027e-09	-3.260979e+01	-5.921830e+02
3.000000e-07	-4.544316e-06	-8.931329e-09	-3.221774e+01	-5.880987e+02
3.100000e-07	-4.487416e-06	-8.887450e-09	-3.181433e+01	-5.838836e+02
3.200000e-07	-4.428628e-06	-8.847969e-09	-3.139754e+01	-5.795418e+02
3.300000e-07	-4.368209e-06	-8.773142e-09	-3.096919e+01	-5.750753e+02
3.400000e-07	-4.306314e-06	-8.686500e-09	-3.053038e+01	-5.704835e+02
3.500000e-07	-4.243044e-06	-8.627057e-09	-3.008181e+01	-5.657643e+02
3.600000e-07	-4.178273e-06	-8.534490e-09	-2.962260e+01	-5.609145e+02
3.700000e-07	-4.111696e-06	-8.458144e-09	-2.915060e+01	-5.559297e+02
3.800000e-07	-4.043585e-06	-8.416546e-09	-2.866771e+01	-5.508055e+02
3.900000e-07	-3.974184e-06	-8.320937e-09	-2.817569e+01	-5.455378e+02
4.000000e-07	-3.903507e-06	-8.203623e-09	-2.767461e+01	-5.401228e+02
4.100000e-07	-3.831578e-06	-8.108899e-09	-2.716465e+01	-5.345575e+02
4.200000e-07	-3.758205e-06	-8.049169e-09	-2.664446e+01	-5.288396e+02
4.300000e-07	-3.683202e-06	-7.978372e-09	-2.611271e+01	-5.229678e+02
4.400000e-07	-3.606730e-06	-7.886500e-09	-2.557055e+01	-5.169411e+02
4.500000e-07	-3.528864e-06	-7.789197e-09	-2.501851e+01	-5.107591e+02
4.600000e-07	-3.449482e-06	-7.675255e-09	-2.445572e+01	-5.044219e+02
4.700000e-07	-3.368804e-06	-7.568364e-09	-2.388373e+01	-4.979297e+02
4.800000e-07	-3.287046e-06	-7.474879e-09	-2.330410e+01	-4.912826e+02
4.900000e-07	-3.204145e-06	-7.384662e-09	-2.271636e+01	-4.844810e+02
5.000000e-07	-3.120246e-06	-7.277502e-09	-2.212154e+01	-4.775252e+02
5.100000e-07	-3.035370e-06	-7.152061e-09	-2.151979e+01	-4.704150e+02
5.200000e-07	-2.949432e-06	-7.033086e-09	-2.091052e+01	-4.631503e+02
5.300000e-07	-2.862495e-06	-6.930122e-09	-2.029416e+01	-4.557303e+02
5.400000e-07	-2.774663e-06	-6.826168e-09	-1.967146e+01	-4.481538e+02
5.500000e-07	-2.685942e-06	-6.704768e-09	-1.904246e+01	-4.404190e+02
5.600000e-07	-2.595987e-06	-6.568313e-09	-1.840471e+01	-4.325232e+02
5.700000e-07	-2.504843e-06	-6.438891e-09	-1.775853e+01	-4.244629e+02
5.800000e-07	-2.412928e-06	-6.324551e-09	-1.710688e+01	-4.162339e+02
5.900000e-07	-2.320249e-06	-6.207292e-09	-1.644981e+01	-4.078314e+02
6.000000e-07	-2.226663e-06	-6.071561e-09	-1.578632e+01	-3.992499e+02
6.100000e-07	-2.132291e-06	-5.928129e-09	-1.511726e+01	-3.904839e+02
6.200000e-07	-2.037246e-06	-5.788298e-09	-1.444342e+01	-3.815281e+02
6.300000e-07	-1.941522e-06	-5.649701e-09	-1.376477e+01	-3.723773e+02
6.400000e-07	-1.845084e-06	-5.514183e-09	-1.308105e+01	-3.630274e+02
6.500000e-07	-1.747801e-06	-5.372670e-09	-1.239135e+01	-3.534749e+02
6.600000e-07	-1.649646e-06	-5.213836e-09	-1.169546e+01	-3.437172e+02
6.700000e-07	-1.550747e-06	-5.046659e-09	-1.099430e+01	-3.337526e+02
6.800000e-07	-1.451288e-06	-4.888661e-09	-1.028916e+01	-3.235798e+02
6.900000e-07	-1.351443e-06	-4.739083e-09	-9.581295e+00	-3.131979e+02
7.000000e-07	-1.251288e-06	-4.584421e-09	-8.871231e+00	-3.026059e+02
7.100000e-07	-1.150812e-06	-4.417541e-09	-8.158889e+00	-2.918020e+02
7.200000e-07	-1.049974e-06	-4.242153e-09	-7.443980e+00	-2.807836e+02
7.300000e-07	-9.487058e-07	-4.066755e-09	-6.726018e+00	-2.695472e+02
7.400000e-07	-8.470837e-07	-3.893847e-09	-6.005550e+00	-2.580879e+02
7.500000e-07	-7.451668e-07	-3.719828e-09	-5.282992e+00	-2.463996e+02
7.600000e-07	-6.429810e-07	-3.536535e-09	-4.558528e+00	-2.344754e+02
7.700000e-07	-5.406753e-07	-3.342798e-09	-3.833213e+00	-2.223079e+02
7.800000e-07	-4.382863e-07	-3.148199e-09	-3.107309e+00	-2.098893e+02
7.900000e-07	-3.357334e-07	-2.958180e-09	-2.380242e+00	-1.972116e+02
8.000000e-07	-2.330112e-07	-2.767935e-09	-1.651975e+00	-1.842670e+02
8.100000e-07	-1.302298e-07	-2.569511e-09	-9.232874e-01	-1.710478e+02
8.200000e-07	-2.737969e-08	-2.362831e-09	-1.941132e-01	-1.575462e+02
8.300000e-07	7.556813e-08	-2.151735e-09	5.357537e-01	-1.437537e+02
8.400000e-07	1.785303e-07	-1.939146e-09	1.265723e+00	-1.296607e+02
8.500000e-07	2.814054e-07	-1.722154e-09	1.995074e+00	-1.152563e+02
8.600000e-07	3.841711e-07	-1.498910e-09	2.723649e+00	-1.005275e+02
8.700000e-07	4.868315e-07	-1.266682e-09	3.451478e+00	-8.545952e+01
8.800000e-07	5.893538e-07	-1.025614e-09	4.178329e+00	-7.003584e+01
8.900000e-07	6.917048e-07	-7.804988e-10	4.903964e+00	-5.423917e+01
9.000000e-07	7.938426e-07	-5.320696e-10	5.628088e+00	-3.805275e+01
9.100000e-07	8.957162e-07	-2.815771e-10	6.350339e+00	-2.146220e+01
9.200000e-07	9.972339e-07	-2.639831e-11	7.070067e+00	-4.457767e+00
9.300000e-07	1.098386e-06	2.364017e-10	7.787203e+00	1.296324e+01
9.400000e-07	1.199158e-06	5.079872e-10	8.501644e+00	3.079400e+01
9.500000e-07	1.299519e-06	7.836882e-10	9.213170e+00	4.901602e+01
9.600000e-07	1.399519e-06	1.062501e-09	9.922136e+00	6.759754e+01
9.700000e-07	1.499119e-06	1.347683e-09	1.062827e+01	8.649270e+01
9.800000e-07	1.598088e-06	1.639052e-09	1.132993e+01	1.056416e+02
9.900000e-07	1.696270e-06	1.933816e-09	1.202601e+01	1.249716e+02
1.000000e-06	1.793668e-06	2.228169e-09	1.271653e+01	1.443994e+02
1.010000e-06	1.890366e-06	2.521539e-09	1.340209e+01	1.638340e+02
1.020000e-06	1.986362e-06	2.813668e-09	1.408267e+01	1.831809e+02
1.030000e-06	2.081563e-06	3.105257e-09	1.475761e+01	2.023457e+02
1.040000e-06	2.176023e-06	3.395542e-09	1.542730e+01	2.212389e+02
1.050000e-06	2.269790e-06	3.677722e-09	1.609208e+01	2.397790e+02
1.060000e-06	2.362783e-06	3.948080e-09	1.675137e+01	2.578964e+02
1.070000e-06	2.455054e-06	4.210951e-09	1.740554e+01	2.755352e+02
1.080000e-06	2.546622e-06	4.469718e-09	1.805473e+01	2.926545e+02
1.090000e-06	2.637241e-06	4.721452e-09	1.869719e+01	3.092287e+02
1.100000e-06	2.726677e-06	4.964807e-09	1.933126e+01	3.252458e+02
1.110000e-06	2.815042e-06	5.198677e-09	1.995774e+01	3.407060e+02
1.120000e-06	2.902386e-06	5.425279e-09	2.057698e+01	3.556189e+02
1.130000e-06	2.988697e-06	5.645074e-09	2.118889e+01	3.700004e+02
1.140000e-06	3.074113e-06	5.858289e-09	2.179447e+01	3.838696e+02
1.150000e-06	3.158628e-06	6.063185e-09	2.239365e+01	3.972464e+02
1.160000e-06	3.242194e-06	6.259031e-09	2.298611e+01	4.101489e+02
1.170000e-06	3.324610e-06	6.447584e-09	2.357041e+01	4.225921e+02
1.180000e-06	3.405742e-06	6.627862e-09	2.414561e+01	4.345872e+02
1.190000e-06	3.485614e-06	6.802146e-09	2.471188e+01	4.461417e+02
1.200000e-06	3.564259e-06	6.970048e-09	2.526944e+01	4.572595e+02
1.210000e-06	3.641639e-06	7.132179e-09	2.581805e+01	4.679430e+02
1.220000e-06	3.717721e-06	7.288686e-09	2.635744e+01	4.781937e+02
1.230000e-06	3.792306e-06	7.440786e-09	2.688623e+01	4.880139e+02
1.240000e-06	3.865308e-06	7.586556e-09	2.740379e+01	4.974080e+02
1.250000e-06	3.936869e-06	7.725103e-09	2.791114e+01	5.063834e+02
1.260000e-06	4.007031e-06	7.854724e-09	2.840855e+01	5.149506e+02
1.270000e-06	4.075828e-06	7.976269e-09	2.889631e+01	5.231236e+02
1.280000e-06	4.143179e-06	8.092444e-09	2.937381e+01	5.309194e+02
1.290000e-06	4.208910e-06	8.203060e-09	2.983982e+01	5.383571e+02
1.300000e-06	4.273063e-06	8.309677e-09	3.029464e+01	5.454567e+02
1.310000e-06	4.335760e-06	8.412019e-09	3.073914e+01	5.522386e+02
1.320000e-06	4.396964e-06	8.510793e-09	3.117306e+01	5.587222e+02
1.330000e-06	4.456757e-06	8.606125e-09	3.159697e+01	5.649254e+02
1.340000e-06	4.514997e-06	8.696872e-09	3.200987e+01	5.708637e+02
1.350000e-06	4.571487e-06	8.783651e-09	3.241037e+01	5.765505e+02
1.360000e-06	4.626269e-06	8.865104e-09	3.279876e+01	5.819966e+02
1.370000e-06	4.679371e-06	8.942873e-09	3.317523e+01	5.872106e+02
1.380000e-06	4.730599e-06	9.019116e-09	3.353842e+01	5.921994e+02
1.390000e-06	4.779804e-06	9.092775e-09	3.388727e+01	5.969682e+02
1.400000e-06	4.827193e-06	9.162962e-09	3.422325e+01	6.015213e+02
1.410000e-06	4.872914e-06	9.228412e-09	3.454739e+01	6.058618e+02
1.420000e-06	4.917048e-06	9.289851e-09	3.486028e+01	6.099923e+02
1.430000e-06	4.959413e-06	9.348707e-09	3.516064e+01	6.139147e+02
1.440000e-06	4.999834e-06	9.406683e-09	3.544721e+01	6.176302e+02
1.450000e-06	5.038503e-06	9.463580e-09	3.572136e+01	6.211394e+02
1.460000e-06	5.075571e-06	9.515856e-09	3.598416e+01	6.244422e+02
1.470000e-06	5.111001e-06	9.560827e-09	3.623535e+01	6.275381e+02
1.480000e-06	5.144516e-06	9.600792e-09	3.647296e+01	6.304265e+02
1.490000e-06	5.176111e-06	9.637275e-09	3.669696e+01	6.331068e+02
1.500000e-06	5.206004e-06	9.669718e-09	3.690889e+01	6.355791e+02
1.510000e-06	5.234244e-06	9.700867e-09	3.710910e+01	6.378446e+02
1.520000e-06	5.260561e-06	9.730781e-09	3.729568e+01	6.399060e+02
1.530000e-06	5.284764e-06	9.758752e-09	3.746728e+01	6.417675e+02
1.540000e-06	5.307036e-06	9.784062e-09	3.762518e+01	6.434356e+02
1.550000e-06	5.327549e-06	9.806496e-09	3.777060e+01	6.449182e+02
1.560000e-06	5.346289e-06	9.826689e-09	3.790347e+01	6.462246e+02
1.570000e-06	5.363096e-06	9.843342e-09	3.802262e+01	6.473646e+02
1.580000e-06	5.377896e-06	9.856877e-09	3.812755e+01	6.483481e+02
1.590000e-06	5.390716e-06	9.868126e-09	3.821844e+01	6.491837e+02
1.600000e-06	5.401386e-06	9.877320e-09	3.829408e+01	6.498787e+02
1.610000e-06	5.409838e-06	9.884944e-09	3.835400e+01	6.504378e+02
1.620000e-06	5.416335e-06	9.891062e-09	3.840007e+01	6.508632e+02
1.630000e-06	5.421066e-06	9.896792e-09	3.843361e+01	6.511543e+02
1.640000e-06	5.423943e-06	9.901201e-09	3.845401e+01	6.513087e+02
1.650000e-06	5.424788e-06	9.903228e-09	3.846000e+01	6.513220e+02
1.660000e-06	5.423717e-06	9.900642e-09	3.845240e+01	6.511897e+02
1.670000e-06	5.420930e-06	9.895012e-09	3.843265e+01	6.509077e+02
1.680000e-06	5.416480e-06	9.887892e-09	3.840110e+01	6.504735e+02
1.690000e-06	5.410121e-06	9.876597e-09	3.835602e+01	6.498870e+02
1.700000e-06	5.401910e-06	9.864949e-09	3.829780e+01	6.491513e+02
1.710000e-06	5.392142e-06	9.856471e-09	3.822855e+01	6.482727e+02
1.720000e-06	5.380735e-06	9.853385e-09	3.814768e+01	6.472605e+02
1.730000e-06	5.367415e-06	9.839772e-09	3.805324e+01	6.461260e+02
1.740000e-06	5.352016e-06	9.767227e-09	3.794406e+01	6.448822e+02
1.750000e-06	5.334288e-06	9.743376e-09	3.781838e+01	6.435417e+02
1.760000e-06	5.313897e-06	9.749944e-09	3.767382e+01	6.421155e+02
1.770000e-06	5.291053e-06	9.754438e-09	3.751186e+01	6.406121e+02
1.780000e-06	5.266690e-06	9.795481e-09	3.733913e+01	6.390361e+02
1.790000e-06	5.241665e-06	9.665615e-09	3.716172e+01	6.373874e+02
1.800000e-06	5.215437e-06	9.619173e-09	3.697576e+01	6.356615e+02
1.810000e-06	5.187044e-06	9.689275e-09	3.677447e+01	6.338492e+02
1.820000e-06	5.156706e-06	9.554537e-09	3.655938e+01	6.319381e+02
1.830000e-06	5.124700e-06	9.576910e-09	3.633247e+01	6.299129e+02
1.840000e-06	5.090769e-06	9.652625e-09	3.609191e+01	6.277575e+02
1.850000e-06	5.055186e-06	9.509650e-09	3.583964e+01	6.254561e+02
1.860000e-06	5.017933e-06	9.536482e-09	3.557553e+01	6.229946e+02
1.870000e-06	4.978731e-06	9.497966e-09	3.529760e+01	6.203620e+02
1.880000e-06	4.937850e-06	9.315067e-09	3.500777e+01	6.175509e+02
1.890000e-06	4.895156e-06	9.358712e-09	3.470508e+01	6.145579e+02
1.900000e-06	4.850730e-06	9.330724e-09	3.439011e+01	6.113837e+02
1.910000e-06	4.804609e-06	9.287006e-09	3.406313e+01	6.080325e+02
1.920000e-06	4.756431e-06	9.244996e-09	3.372156e+01	6.045113e+02
1.930000e-06	4.706506e-06	9.089837e-09	3.336761e+01	6.008288e+02
1.940000e-06	4.654926e-06	9.125612e-09	3.300193e+01	5.969942e+02
1.950000e-06	4.601304e-06	9.074791e-09	3.262176e+01	5.930165e+02
1.960000e-06	4.545640e-06	8.957565e-09	3.222712e+01	5.889033e+02
1.970000e-06	4.488192e-06	8.927764e-09	3.181983e+01	5.846605e+02
1.980000e-06	4.429237e-06	8.824886e-09	3.140186e+01	5.802916e+02
1.990000e-06	4.368838e-06	8.781754e-09	3.097365e+01	5.757979e+02
2.000000e-06	4.306765e-06	8.701393e-09	3.053357e+01	5.711787e+02
2.010000e-06	4.243013e-06	8.648749e-09	3.008159e+01	5.664316e+02
2.020000e-06	4.177754e-06	8.589880e-09	2.961893e+01	5.615528e+02
2.030000e-06	4.111101e-06	8.438320e-09	2.914638e+01	5.565382e+02
2.040000e-06	4.043061e-06	8.399949e-09	2.866400e+01	5.513833e+02
2.050000e-06	3.973437e-06	8.342394e-09	2.817039e+01	5.460839e+02
2.060000e-06	3.902200e-06	8.268104e-09	2.766534e+01	5.406366e+02
2.070000e-06	3.829683e-06	8.170519e-09	2.715122e+01	5.350384e+02
2.080000e-06	3.755985e-06	8.047137e-09	2.662872e+01	5.292874e+02
2.090000e-06	3.680880e-06	7.974233e-09	2.609625e+01	5.233821e+02
2.100000e-06	3.604262e-06	7.867803e-09	2.555306e+01	5.173218e+02
2.110000e-06	3.525994e-06	7.801397e-09	2.499816e+01	5.111062e+02
2.120000e-06	3.446313e-06	7.715727e-09	2.443325e+01	5.047354e+02
2.130000e-06	3.365536e-06	7.605943e-09	2.386057e+01	4.982096e+02
2.140000e-06	3.283641e-06	7.493310e-09	2.327995e+01	4.915291e+02
2.150000e-06	3.200696e-06	7.367353e-09	2.269190e+01	4.846941e+02
2.160000e-06	3.116765e-06	7.285762e-09	2.209686e+01	4.777048e+02
2.170000e-06	3.031721e-06	7.192405e-09	2.149392e+01	4.705612e+02
2.180000e-06	2.945230e-06	7.079611e-09	2.088073e+01	4.632630e+02
2.190000e-06	2.857457e-06	6.945433e-09	2.025845e+01	4.558092e+02
2.200000e-06	2.768776e-06	6.828332e-09	1.962973e+01	4.481987e+02
2.210000e-06	2.679199e-06	6.732469e-09	1.899466e+01	4.404293e+02
2.220000e-06	2.588733e-06	6.615552e-09	1.835328e+01	4.324982e+02
2.230000e-06	2.497375e-06	6.483150e-09	1.770558e+01	4.244018e+02
2.240000e-06	2.405230e-06	6.348183e-09	1.705231e+01	4.161357e+02
2.250000e-06	2.312280e-06	6.222669e-09	1.639332e+01	4.076949e+02
2.260000e-06	2.218420e-06	6.086336e-09	1.572788e+01	3.990740e+02
2.270000e-06	2.123596e-06	5.958020e-09	1.505561e+01	3.902675e+02
2.280000e-06	2.027767e-06	5.835132e-09	1.437621e+01	3.812700e+02
2.290000e-06	1.931241e-06	5.690180e-09	1.369187e+01	3.720765e+02
2.300000e-06	1.834197e-06	5.532985e-09	1.300386e+01	3.626832e+02
2.310000e-06	1.736605e-06	5.387871e-09	1.231197e+01	3.530865e+02
2.320000e-06	1.638451e-06	5.257222e-09	1.161609e+01	3.432842e+02
2.330000e-06	1.539781e-06	5.112779e-09	1.091655e+01	3.332747e+02
2.340000e-06	1.440650e-06	4.950498e-09	1.021375e+01	3.230569e+02
2.350000e-06	1.341066e-06	4.781944e-09	9.507725e+00	3.126298e+02
2.360000e-06	1.241114e-06	4.617118e-09	8.799100e+00	3.019921e+02
2.370000e-06	1.140836e-06	4.456837e-09	8.088160e+00	2.911422e+02
2.380000e-06	1.040235e-06	4.298024e-09	7.374931e+00	2.800771e+02
2.390000e-06	9.393196e-07	4.132257e-09	6.659473e+00	2.687931e+02
2.400000e-06	8.380939e-07	3.952406e-09	5.941815e+00	2.572848e+02
2.410000e-06	7.365099e-07	3.768029e-09	5.221617e+00	2.455463e+02
2.420000e-06	6.344584e-07	3.586972e-09	4.498106e+00	2.335703e+02
2.430000e-06	5.320297e-07	3.408102e-09	3.771919e+00	2.213493e+02
2.440000e-06	4.294154e-07	3.223057e-09	3.044417e+00	2.088755e+02
2.450000e-06	3.266018e-07	3.024479e-09	2.315501e+00	1.961409e+02
2.460000e-06	2.235692e-07	2.817436e-09	1.585034e+00	1.831378e+02
2.470000e-06	1.203967e-07	2.614182e-09	8.535740e-01	1.698584e+02
2.480000e-06	1.717285e-08	2.411975e-09	1.217499e-01	1.562949e+02
2.490000e-06	-8.607151e-08	2.204457e-09	-6.102192e-01	1.424384e+02
2.500000e-06	-1.893167e-07	1.987712e-09	-1.342194e+00	1.282794e+02
2.510000e-06	-2.925006e-07	1.763272e-09	-2.073735e+00	1.138063e+02
2.520000e-06	-3.955118e-07	1.536364e-09	-2.804051e+00	9.900579e+01
2.530000e-06	-4.983287e-07	1.307543e-09	-3.532990e+00	8.386269e+01
2.540000e-06	-6.009689e-07	1.078341e-09	-4.260676e+00	6.836021e+01
2.550000e-06	-7.033552e-07	8.401145e-10	-4.986561e+00	5.248104e+01
2.560000e-06	-8.053246e-07	5.857303e-10	-5.709491e+00	3.620877e+01
2.570000e-06	-9.068471e-07	3.234377e-10	-6.429253e+00	1.952981e+01
2.580000e-06	-1.007990e-06	6.331452e-11	-7.146323e+00	2.435708e+00
2.590000e-06	-1.108706e-06	-1.984142e-10	-7.860366e+00	-1.507438e+01
2.600000e-06	-1.209027e-06	-4.703383e-10	-8.571614e+00	-3.299131e+01
2.610000e-06	-1.309004e-06	-7.519835e-10	-9.280416e+00	-5.129386e+01
2.620000e-06	-1.408477e-06	-1.040999e-09	-9.985649e+00	-6.994728e+01
2.630000e-06	-1.507389e-06	-1.333693e-09	-1.068690e+01	-8.890265e+01
2.640000e-06	-1.605815e-06	-1.625816e-09	-1.138471e+01	-1.080972e+02
2.650000e-06	-1.703698e-06	-1.920492e-09	-1.207867e+01	-1.274558e+02
2.660000e-06	-1.800981e-06	-2.220510e-09	-1.276837e+01	-1.468932e+02
2.670000e-06	-1.897659e-06	-2.523259e-09	-1.345379e+01	-1.663174e+02
2.680000e-06	-1.993793e-06	-2.821467e-09	-1.413535e+01	-1.856335e+02
2.690000e-06	-2.089306e-06	-3.113357e-09	-1.481250e+01	-2.047478e+02
2.700000e-06	-2.184014e-06	-3.400427e-09	-1.548395e+01	-2.235721e+02
2.710000e-06	-2.277695e-06	-3.684034e-09	-1.614812e+01	-2.420274e+02
2.720000e-06	-2.370391e-06	-3.962481e-09	-1.680530e+01	-2.600468e+02
2.730000e-06	-2.462277e-06	-4.231081e-09	-1.745675e+01	-2.775775e+02
2.740000e-06	-2.553302e-06	-4.488872e-09	-1.810209e+01	-2.945821e+02
2.750000e-06	-2.643388e-06	-4.737088e-09	-1.874077e+01	-3.110377e+02
2.760000e-06	-2.732532e-06	-4.979464e-09	-1.937277e+01	-3.269354e+02
2.770000e-06	-2.820845e-06	-5.217534e-09	-1.999888e+01	-3.422777e+02
2.780000e-06	-2.908334e-06	-5.448391e-09	-2.061915e+01	-3.570755e+02
2.790000e-06	-2.994759e-06	-5.669039e-09	-2.123188e+01	-3.713459e+02
2.800000e-06	-3.079993e-06	-5.880641e-09	-2.183616e+01	-3.851083e+02
2.810000e-06	-3.164062e-06	-6.084364e-09	-2.243218e+01	-3.983823e+02
2.820000e-06	-3.247035e-06	-6.280538e-09	-2.302043e+01	-4.111856e+02
2.830000e-06	-3.328942e-06	-6.471067e-09	-2.360112e+01	-4.235324e+02
2.840000e-06	-3.409775e-06	-6.653769e-09	-2.417420e+01	-4.354329e+02
2.850000e-06	-3.489506e-06	-6.826705e-09	-2.473947e+01	-4.468939e+02
2.860000e-06	-3.567845e-06	-6.989955e-09	-2.529487e+01	-4.579188e+02
2.870000e-06	-3.644667e-06	-7.147782e-09	-2.583951e+01	-4.685098e+02
2.880000e-06	-3.720049e-06	-7.302911e-09	-2.637395e+01	-4.786683e+02
2.890000e-06	-3.794017e-06	-7.452693e-09	-2.689836e+01	-4.883971e+02
2.900000e-06	-3.866650e-06	-7.595891e-09	-2.741330e+01	-4.977011e+02
2.910000e-06	-3.937871e-06	-7.734246e-09	-2.791824e+01	-5.065883e+02
2.920000e-06	-4.007548e-06	-7.866852e-09	-2.841222e+01	-5.150701e+02
2.930000e-06	-4.075729e-06	-7.992394e-09	-2.889560e+01	-5.231611e+02
2.940000e-06	-4.142497e-06	-8.113573e-09	-2.936897e+01	-5.308789e+02
