# Temperatura_=_77.1
# Concentracion g/m^3_=_15000.0
# C_Vs_to_Am_M_A/Vsm_=_65563218390.804596
# pendiente_HvsI_1/m_=_3716.3
# ordenada_HvsI_A/m_=_1297.0
# frecuencia_Hz_=_301602.60378690326

Tiempo_(s)	Campo_(V.s)	Magnetizacion_(V.s)	Campo_(kA/m)	Magnetizacion_(A/m)
0.000000e+00	-5.432854e-06	-9.573660e-09	-3.833641e+01	-6.251857e+02
1.000000e-08	-5.430212e-06	-9.571110e-09	-3.831777e+01	-6.249363e+02
2.000000e-08	-5.425779e-06	-9.561160e-09	-3.828649e+01	-6.245485e+02
3.000000e-08	-5.419710e-06	-9.552712e-09	-3.824366e+01	-6.240162e+02
4.000000e-08	-5.412026e-06	-9.542449e-09	-3.818945e+01	-6.233358e+02
5.000000e-08	-5.402534e-06	-9.526343e-09	-3.812246e+01	-6.225072e+02
6.000000e-08	-5.390943e-06	-9.505753e-09	-3.804067e+01	-6.215348e+02
7.000000e-08	-5.377450e-06	-9.476370e-09	-3.794546e+01	-6.204272e+02
8.000000e-08	-5.361945e-06	-9.490321e-09	-3.783605e+01	-6.191972e+02
9.000000e-08	-5.344215e-06	-9.540459e-09	-3.771094e+01	-6.178603e+02
1.000000e-07	-5.324364e-06	-9.491267e-09	-3.757086e+01	-6.164331e+02
1.100000e-07	-5.302527e-06	-9.424499e-09	-3.741678e+01	-6.149316e+02
1.200000e-07	-5.278912e-06	-9.374897e-09	-3.725014e+01	-6.133689e+02
1.300000e-07	-5.253623e-06	-9.242095e-09	-3.707169e+01	-6.117536e+02
1.400000e-07	-5.226732e-06	-9.331238e-09	-3.688194e+01	-6.100884e+02
1.500000e-07	-5.198332e-06	-9.394146e-09	-3.668153e+01	-6.083693e+02
1.600000e-07	-5.168519e-06	-9.187535e-09	-3.647116e+01	-6.065858e+02
1.700000e-07	-5.137110e-06	-9.275936e-09	-3.624953e+01	-6.047218e+02
1.800000e-07	-5.103546e-06	-9.247615e-09	-3.601269e+01	-6.027567e+02
1.900000e-07	-5.068075e-06	-9.042364e-09	-3.576239e+01	-6.006679e+02
2.000000e-07	-5.031066e-06	-9.173124e-09	-3.550124e+01	-5.984329e+02
2.100000e-07	-4.992324e-06	-9.131662e-09	-3.522785e+01	-5.960316e+02
2.200000e-07	-4.951808e-06	-9.005308e-09	-3.494196e+01	-5.934482e+02
2.300000e-07	-4.909319e-06	-9.043190e-09	-3.464214e+01	-5.906727e+02
2.400000e-07	-4.864855e-06	-8.942565e-09	-3.432839e+01	-5.877016e+02
2.500000e-07	-4.818578e-06	-8.875723e-09	-3.400184e+01	-5.845380e+02
2.600000e-07	-4.770302e-06	-8.845042e-09	-3.366118e+01	-5.811910e+02
2.700000e-07	-4.719904e-06	-8.782687e-09	-3.330555e+01	-5.776736e+02
2.800000e-07	-4.667540e-06	-8.756451e-09	-3.293605e+01	-5.740017e+02
2.900000e-07	-4.613387e-06	-8.650336e-09	-3.255392e+01	-5.701914e+02
3.000000e-07	-4.557679e-06	-8.576989e-09	-3.216082e+01	-5.662576e+02
3.100000e-07	-4.500244e-06	-8.571071e-09	-3.175554e+01	-5.622120e+02
3.200000e-07	-4.440920e-06	-8.542094e-09	-3.133693e+01	-5.580617e+02
3.300000e-07	-4.380012e-06	-8.445190e-09	-3.090713e+01	-5.538095e+02
3.400000e-07	-4.317637e-06	-8.333836e-09	-3.046699e+01	-5.494532e+02
3.500000e-07	-4.253950e-06	-8.292557e-09	-3.001759e+01	-5.449869e+02
3.600000e-07	-4.188696e-06	-8.216901e-09	-2.955713e+01	-5.404016e+02
3.700000e-07	-4.121633e-06	-8.150639e-09	-2.908391e+01	-5.356872e+02
3.800000e-07	-4.053075e-06	-8.102585e-09	-2.860014e+01	-5.308335e+02
3.900000e-07	-3.983163e-06	-7.998259e-09	-2.810681e+01	-5.258318e+02
4.000000e-07	-3.912027e-06	-7.897660e-09	-2.760484e+01	-5.206757e+02
4.100000e-07	-3.839566e-06	-7.814727e-09	-2.709353e+01	-5.153619e+02
4.200000e-07	-3.765532e-06	-7.769170e-09	-2.657112e+01	-5.098898e+02
4.300000e-07	-3.689936e-06	-7.693945e-09	-2.603768e+01	-5.042615e+02
4.400000e-07	-3.612926e-06	-7.583175e-09	-2.549426e+01	-4.984809e+02
4.500000e-07	-3.534432e-06	-7.481280e-09	-2.494038e+01	-4.925527e+02
4.600000e-07	-3.454387e-06	-7.388222e-09	-2.437555e+01	-4.864812e+02
4.700000e-07	-3.373130e-06	-7.312352e-09	-2.380217e+01	-4.802697e+02
4.800000e-07	-3.290767e-06	-7.224654e-09	-2.322098e+01	-4.739197e+02
4.900000e-07	-3.207342e-06	-7.125435e-09	-2.263230e+01	-4.674301e+02
5.000000e-07	-3.122945e-06	-7.012433e-09	-2.203676e+01	-4.607980e+02
5.100000e-07	-3.037496e-06	-6.895008e-09	-2.143380e+01	-4.540184e+02
5.200000e-07	-2.951086e-06	-6.791749e-09	-2.082405e+01	-4.470851e+02
5.300000e-07	-2.863844e-06	-6.693739e-09	-2.020844e+01	-4.399915e+02
5.400000e-07	-2.775631e-06	-6.584873e-09	-1.958598e+01	-4.327313e+02
5.500000e-07	-2.686130e-06	-6.459766e-09	-1.895442e+01	-4.252992e+02
5.600000e-07	-2.595398e-06	-6.328915e-09	-1.831418e+01	-4.176914e+02
5.700000e-07	-2.503751e-06	-6.214745e-09	-1.766748e+01	-4.099058e+02
5.800000e-07	-2.411280e-06	-6.114616e-09	-1.701497e+01	-4.019421e+02
5.900000e-07	-2.317926e-06	-6.000072e-09	-1.635622e+01	-3.938010e+02
6.000000e-07	-2.223727e-06	-5.861524e-09	-1.569152e+01	-3.854840e+02
6.100000e-07	-2.128846e-06	-5.720804e-09	-1.502200e+01	-3.769924e+02
6.200000e-07	-2.033312e-06	-5.588010e-09	-1.434787e+01	-3.683270e+02
6.300000e-07	-1.937024e-06	-5.454978e-09	-1.366842e+01	-3.594872e+02
6.400000e-07	-1.839817e-06	-5.319193e-09	-1.298249e+01	-3.504708e+02
6.500000e-07	-1.741670e-06	-5.176107e-09	-1.228993e+01	-3.412737e+02
6.600000e-07	-1.642815e-06	-5.024995e-09	-1.159236e+01	-3.318903e+02
6.700000e-07	-1.543486e-06	-4.872958e-09	-1.089146e+01	-3.223137e+02
6.800000e-07	-1.443731e-06	-4.729536e-09	-1.018755e+01	-3.125359e+02
6.900000e-07	-1.343523e-06	-4.588681e-09	-9.480442e+00	-3.025492e+02
7.000000e-07	-1.242917e-06	-4.436930e-09	-8.770526e+00	-2.923460e+02
7.100000e-07	-1.141945e-06	-4.270122e-09	-8.058023e+00	-2.819198e+02
7.200000e-07	-1.040538e-06	-4.098757e-09	-7.342456e+00	-2.712653e+02
7.300000e-07	-9.387305e-07	-3.931391e-09	-6.624062e+00	-2.603790e+02
7.400000e-07	-8.366304e-07	-3.763406e-09	-5.903602e+00	-2.492584e+02
7.500000e-07	-7.342466e-07	-3.589664e-09	-5.181141e+00	-2.379022e+02
7.600000e-07	-6.315871e-07	-3.406803e-09	-4.456734e+00	-2.263099e+02
7.700000e-07	-5.287465e-07	-3.218718e-09	-3.731049e+00	-2.144808e+02
7.800000e-07	-4.257892e-07	-3.033798e-09	-3.004541e+00	-2.024140e+02
7.900000e-07	-3.227258e-07	-2.852947e-09	-2.277284e+00	-1.901071e+02
8.000000e-07	-2.195821e-07	-2.667594e-09	-1.549460e+00	-1.775564e+02
8.100000e-07	-1.163789e-07	-2.472555e-09	-8.212163e-01	-1.647557e+02
8.200000e-07	-1.312724e-08	-2.269705e-09	-9.263110e-02	-1.516968e+02
8.300000e-07	9.017610e-08	-2.063898e-09	6.363190e-01	-1.383688e+02
8.400000e-07	1.934866e-07	-1.858417e-09	1.365320e+00	-1.247585e+02
8.500000e-07	2.967627e-07	-1.650746e-09	2.094078e+00	-1.108505e+02
8.600000e-07	3.999430e-07	-1.436817e-09	2.822160e+00	-9.662794e+01
8.700000e-07	5.029996e-07	-1.212218e-09	3.549369e+00	-8.207266e+01
8.800000e-07	6.059851e-07	-9.818844e-10	4.276076e+00	-6.716657e+01
8.900000e-07	7.088411e-07	-7.485365e-10	5.001869e+00	-5.189251e+01
9.000000e-07	8.114828e-07	-5.094210e-10	5.726151e+00	-3.623569e+01
9.100000e-07	9.138418e-07	-2.649008e-10	6.448437e+00	-2.018515e+01
9.200000e-07	1.015852e-06	-1.358845e-11	7.168266e+00	-3.735493e+00
9.300000e-07	1.117440e-06	2.431032e-10	7.885111e+00	1.311147e+01
9.400000e-07	1.218587e-06	5.049183e-10	8.598841e+00	3.034501e+01
9.500000e-07	1.319342e-06	7.697074e-10	9.309810e+00	4.794409e+01
9.600000e-07	1.419725e-06	1.037530e-09	1.001815e+01	6.587628e+01
9.700000e-07	1.519618e-06	1.311366e-09	1.072304e+01	8.409721e+01
9.800000e-07	1.618938e-06	1.590900e-09	1.142388e+01	1.025507e+02
9.900000e-07	1.717724e-06	1.872159e-09	1.212095e+01	1.211698e+02
1.000000e-06	1.815867e-06	2.152167e-09	1.281349e+01	1.398781e+02
1.010000e-06	1.913137e-06	2.433411e-09	1.349987e+01	1.585925e+02
1.020000e-06	2.009485e-06	2.716744e-09	1.417974e+01	1.772260e+02
1.030000e-06	2.105037e-06	3.000368e-09	1.485399e+01	1.956913e+02
1.040000e-06	2.199850e-06	3.279025e-09	1.552303e+01	2.139042e+02
1.050000e-06	2.293908e-06	3.547981e-09	1.618674e+01	2.317875e+02
1.060000e-06	2.387149e-06	3.808315e-09	1.684469e+01	2.492733e+02
1.070000e-06	2.479632e-06	4.062292e-09	1.749729e+01	2.663064e+02
1.080000e-06	2.571416e-06	4.311501e-09	1.814495e+01	2.828449e+02
1.090000e-06	2.662359e-06	4.555137e-09	1.878668e+01	2.988612e+02
1.100000e-06	2.752224e-06	4.790776e-09	1.942080e+01	3.143411e+02
1.110000e-06	2.840852e-06	5.017552e-09	2.004620e+01	3.292825e+02
1.120000e-06	2.928400e-06	5.236211e-09	2.066397e+01	3.436932e+02
1.130000e-06	3.015082e-06	5.448466e-09	2.127564e+01	3.575877e+02
1.140000e-06	3.100811e-06	5.655968e-09	2.188057e+01	3.709847e+02
1.150000e-06	3.185521e-06	5.854735e-09	2.247832e+01	3.839038e+02
1.160000e-06	3.269233e-06	6.043612e-09	2.306903e+01	3.963634e+02
1.170000e-06	3.351888e-06	6.225723e-09	2.365228e+01	4.083785e+02
1.180000e-06	3.433336e-06	6.401072e-09	2.422700e+01	4.199603e+02
1.190000e-06	3.513446e-06	6.570101e-09	2.479230e+01	4.311154e+02
1.200000e-06	3.592275e-06	6.732519e-09	2.534855e+01	4.418467e+02
1.210000e-06	3.669820e-06	6.889220e-09	2.589574e+01	4.521547e+02
1.220000e-06	3.746070e-06	7.039950e-09	2.643379e+01	4.620388e+02
1.230000e-06	3.820901e-06	7.185031e-09	2.696182e+01	4.714995e+02
1.240000e-06	3.894087e-06	7.324617e-09	2.747825e+01	4.805395e+02
1.250000e-06	3.965744e-06	7.458689e-09	2.798389e+01	4.891652e+02
1.260000e-06	4.036020e-06	7.583242e-09	2.847979e+01	4.973873e+02
1.270000e-06	4.104913e-06	7.697658e-09	2.896593e+01	5.052209e+02
1.280000e-06	4.172457e-06	7.807483e-09	2.944254e+01	5.126851e+02
1.290000e-06	4.238417e-06	7.913949e-09	2.990798e+01	5.198016e+02
1.300000e-06	4.302621e-06	8.017858e-09	3.036103e+01	5.265936e+02
1.310000e-06	4.365281e-06	8.117462e-09	3.080319e+01	5.330844e+02
1.320000e-06	4.426522e-06	8.212789e-09	3.123533e+01	5.392955e+02
1.330000e-06	4.486376e-06	8.303575e-09	3.165768e+01	5.452457e+02
1.340000e-06	4.544654e-06	8.390465e-09	3.206892e+01	5.509501e+02
1.350000e-06	4.601116e-06	8.473697e-09	3.246734e+01	5.564200e+02
1.360000e-06	4.655889e-06	8.551127e-09	3.285384e+01	5.616629e+02
1.370000e-06	4.708993e-06	8.624784e-09	3.322856e+01	5.666830e+02
1.380000e-06	4.760171e-06	8.696902e-09	3.358969e+01	5.714825e+02
1.390000e-06	4.809317e-06	8.768924e-09	3.393649e+01	5.760619e+02
1.400000e-06	4.856611e-06	8.838935e-09	3.427021e+01	5.804218e+02
1.410000e-06	4.902246e-06	8.902693e-09	3.459223e+01	5.845630e+02
1.420000e-06	4.946345e-06	8.961249e-09	3.490341e+01	5.884875e+02
1.430000e-06	4.988707e-06	9.017298e-09	3.520233e+01	5.921983e+02
1.440000e-06	5.029093e-06	9.071126e-09	3.548731e+01	5.956996e+02
1.450000e-06	5.067732e-06	9.122538e-09	3.575997e+01	5.989960e+02
1.460000e-06	5.104755e-06	9.169249e-09	3.602121e+01	6.020923e+02
1.470000e-06	5.140114e-06	9.210898e-09	3.627072e+01	6.049929e+02
1.480000e-06	5.173567e-06	9.248785e-09	3.650678e+01	6.077009e+02
1.490000e-06	5.205014e-06	9.282962e-09	3.672868e+01	6.102186e+02
1.500000e-06	5.234699e-06	9.314711e-09	3.693815e+01	6.125469e+02
1.510000e-06	5.262753e-06	9.346016e-09	3.713611e+01	6.146860e+02
1.520000e-06	5.288939e-06	9.375630e-09	3.732089e+01	6.166360e+02
1.530000e-06	5.313021e-06	9.401874e-09	3.749082e+01	6.183973e+02
1.540000e-06	5.335127e-06	9.424348e-09	3.764682e+01	6.199717e+02
1.550000e-06	5.355487e-06	9.442746e-09	3.779048e+01	6.213629e+02
1.560000e-06	5.374097e-06	9.458724e-09	3.792180e+01	6.225764e+02
1.570000e-06	5.390706e-06	9.473926e-09	3.803900e+01	6.236202e+02
1.580000e-06	5.405270e-06	9.487890e-09	3.814177e+01	6.245036e+02
1.590000e-06	5.417867e-06	9.499937e-09	3.823066e+01	6.252370e+02
1.600000e-06	5.428277e-06	9.510237e-09	3.830412e+01	6.258308e+02
1.610000e-06	5.436464e-06	9.518913e-09	3.836189e+01	6.262940e+02
1.620000e-06	5.442726e-06	9.525020e-09	3.840608e+01	6.266339e+02
1.630000e-06	5.447253e-06	9.529317e-09	3.843802e+01	6.268543e+02
1.640000e-06	5.449862e-06	9.533080e-09	3.845643e+01	6.269560e+02
1.650000e-06	5.450368e-06	9.535124e-09	3.846000e+01	6.269365e+02
1.660000e-06	5.449050e-06	9.529159e-09	3.845070e+01	6.267907e+02
1.670000e-06	5.446076e-06	9.521676e-09	3.842971e+01	6.265119e+02
1.680000e-06	5.441387e-06	9.516369e-09	3.839662e+01	6.260932e+02
1.690000e-06	5.434760e-06	9.507475e-09	3.834987e+01	6.255289e+02
1.700000e-06	5.426281e-06	9.496725e-09	3.829004e+01	6.248163e+02
1.710000e-06	5.416254e-06	9.488981e-09	3.821928e+01	6.239560e+02
1.720000e-06	5.404542e-06	9.495144e-09	3.813663e+01	6.229533e+02
1.730000e-06	5.390845e-06	9.476112e-09	3.803998e+01	6.218179e+02
1.740000e-06	5.375061e-06	9.368819e-09	3.792860e+01	6.205633e+02
1.750000e-06	5.356965e-06	9.359342e-09	3.780091e+01	6.192052e+02
1.760000e-06	5.336140e-06	9.376806e-09	3.765396e+01	6.177605e+02
1.770000e-06	5.312948e-06	9.385123e-09	3.749031e+01	6.162445e+02
1.780000e-06	5.288421e-06	9.471528e-09	3.731724e+01	6.146697e+02
1.790000e-06	5.263173e-06	9.273600e-09	3.713908e+01	6.130433e+02
1.800000e-06	5.236583e-06	9.221642e-09	3.695145e+01	6.113667e+02
1.810000e-06	5.207712e-06	9.368289e-09	3.674772e+01	6.096346e+02
1.820000e-06	5.176962e-06	9.165217e-09	3.653074e+01	6.078350e+02
1.830000e-06	5.144611e-06	9.234716e-09	3.630245e+01	6.059507e+02
1.840000e-06	5.110269e-06	9.341655e-09	3.606012e+01	6.039607e+02
1.850000e-06	5.074301e-06	9.081640e-09	3.580632e+01	6.018420e+02
1.860000e-06	5.036592e-06	9.163708e-09	3.554023e+01	5.995726e+02
1.870000e-06	4.996916e-06	9.140016e-09	3.526026e+01	5.971331e+02
1.880000e-06	4.955576e-06	8.966384e-09	3.496855e+01	5.945087e+02
1.890000e-06	4.912456e-06	9.083463e-09	3.466428e+01	5.916910e+02
1.900000e-06	4.867642e-06	8.968747e-09	3.434805e+01	5.886778e+02
1.910000e-06	4.820981e-06	8.955740e-09	3.401879e+01	5.854737e+02
1.920000e-06	4.772262e-06	8.923993e-09	3.367501e+01	5.820885e+02
1.930000e-06	4.721935e-06	8.712454e-09	3.331988e+01	5.785362e+02
1.940000e-06	4.669816e-06	8.838260e-09	3.295211e+01	5.748330e+02
1.950000e-06	4.615564e-06	8.761769e-09	3.256929e+01	5.709947e+02
1.960000e-06	4.559431e-06	8.613984e-09	3.217319e+01	5.670357e+02
1.970000e-06	4.501517e-06	8.578503e-09	3.176452e+01	5.629668e+02
1.980000e-06	4.442148e-06	8.482842e-09	3.134559e+01	5.587943e+02
1.990000e-06	4.381281e-06	8.501905e-09	3.091609e+01	5.545197e+02
2.000000e-06	4.318628e-06	8.381168e-09	3.047398e+01	5.501401e+02
2.010000e-06	4.254429e-06	8.347330e-09	3.002097e+01	5.456487e+02
2.020000e-06	4.188792e-06	8.296551e-09	2.955781e+01	5.410363e+02
2.030000e-06	4.121734e-06	8.122681e-09	2.908462e+01	5.362925e+02
2.040000e-06	4.053193e-06	8.101460e-09	2.860097e+01	5.314074e+02
2.050000e-06	3.983028e-06	8.037783e-09	2.810586e+01	5.263726e+02
2.060000e-06	3.911319e-06	7.992924e-09	2.759985e+01	5.211826e+02
2.070000e-06	3.838274e-06	7.865466e-09	2.708441e+01	5.158344e+02
2.080000e-06	3.763941e-06	7.742967e-09	2.655989e+01	5.103282e+02
2.090000e-06	3.688194e-06	7.707386e-09	2.602539e+01	5.046666e+02
2.100000e-06	3.610893e-06	7.611286e-09	2.547992e+01	4.988535e+02
2.110000e-06	3.532018e-06	7.549332e-09	2.492335e+01	4.928939e+02
2.120000e-06	3.451926e-06	7.434797e-09	2.435819e+01	4.867918e+02
2.130000e-06	3.370758e-06	7.332312e-09	2.378543e+01	4.805503e+02
2.140000e-06	3.288370e-06	7.220928e-09	2.320407e+01	4.741701e+02
2.150000e-06	3.204942e-06	7.112060e-09	2.261536e+01	4.676499e+02
2.160000e-06	3.120505e-06	7.050323e-09	2.201955e+01	4.609863e+02
2.170000e-06	3.034766e-06	6.952408e-09	2.141454e+01	4.541740e+02
2.180000e-06	2.947637e-06	6.837759e-09	2.079972e+01	4.472065e+02
2.190000e-06	2.859380e-06	6.699191e-09	2.017694e+01	4.400773e+02
2.200000e-06	2.770177e-06	6.601725e-09	1.954749e+01	4.327803e+02
2.210000e-06	2.680033e-06	6.518016e-09	1.891140e+01	4.253104e+02
2.220000e-06	2.589022e-06	6.400077e-09	1.826918e+01	4.176643e+02
2.230000e-06	2.497239e-06	6.257117e-09	1.762153e+01	4.098402e+02
2.240000e-06	2.404630e-06	6.119499e-09	1.696804e+01	4.018380e+02
2.250000e-06	2.310997e-06	6.004701e-09	1.630733e+01	3.936587e+02
2.260000e-06	2.216374e-06	5.884507e-09	1.563963e+01	3.853037e+02
2.270000e-06	2.120906e-06	5.768688e-09	1.496597e+01	3.767745e+02
2.280000e-06	2.024613e-06	5.642097e-09	1.428649e+01	3.680715e+02
2.290000e-06	1.927571e-06	5.496588e-09	1.360172e+01	3.591937e+02
2.300000e-06	1.829950e-06	5.343404e-09	1.291287e+01	3.501386e+02
2.310000e-06	1.731830e-06	5.209697e-09	1.222049e+01	3.409018e+02
2.320000e-06	1.633162e-06	5.086710e-09	1.152425e+01	3.314772e+02
2.330000e-06	1.534008e-06	4.939572e-09	1.082458e+01	3.218578e+02
2.340000e-06	1.434470e-06	4.772177e-09	1.012220e+01	3.120355e+02
2.350000e-06	1.334585e-06	4.607625e-09	9.417371e+00	3.020026e+02
2.360000e-06	1.234287e-06	4.460153e-09	8.709629e+00	2.917517e+02
2.370000e-06	1.133534e-06	4.313773e-09	7.998676e+00	2.812767e+02
2.380000e-06	1.032340e-06	4.156051e-09	7.284611e+00	2.705724e+02
2.390000e-06	9.306593e-07	3.986724e-09	6.567108e+00	2.596357e+02
2.400000e-06	8.285332e-07	3.812050e-09	5.846465e+00	2.484643e+02
2.410000e-06	7.260275e-07	3.639203e-09	5.123144e+00	2.370572e+02
2.420000e-06	6.231970e-07	3.469378e-09	4.397530e+00	2.254138e+02
2.430000e-06	5.201104e-07	3.295197e-09	3.670109e+00	2.135335e+02
2.440000e-06	4.168481e-07	3.107957e-09	2.941449e+00	2.014151e+02
2.450000e-06	3.134802e-07	2.909039e-09	2.212043e+00	1.890560e+02
2.460000e-06	2.099510e-07	2.710875e-09	1.481499e+00	1.764519e+02
2.470000e-06	1.062626e-07	2.523589e-09	7.498316e-01	1.635963e+02
2.480000e-06	2.570870e-09	2.334215e-09	1.814110e-02	1.504804e+02
2.490000e-06	-1.010901e-07	2.130718e-09	-7.133328e-01	1.370927e+02
2.500000e-06	-2.047490e-07	1.913458e-09	-1.444792e+00	1.234196e+02
2.510000e-06	-3.083067e-07	1.692215e-09	-2.175537e+00	1.094453e+02
2.520000e-06	-4.117411e-07	1.474661e-09	-2.905411e+00	9.515261e+01
2.530000e-06	-5.150999e-07	1.255848e-09	-3.634753e+00	8.052330e+01
2.540000e-06	-6.183223e-07	1.033221e-09	-4.363132e+00	6.553937e+01
2.550000e-06	-7.212871e-07	8.005550e-10	-5.089693e+00	5.018405e+01
2.560000e-06	-8.238744e-07	5.558664e-10	-5.813591e+00	3.444325e+01
2.570000e-06	-9.260674e-07	3.066899e-10	-6.534706e+00	1.830705e+01
2.580000e-06	-1.027818e-06	5.649126e-11	-7.252698e+00	1.771447e+00
2.590000e-06	-1.129075e-06	-1.980328e-10	-7.967210e+00	-1.515996e+01
2.600000e-06	-1.229783e-06	-4.640962e-10	-8.677844e+00	-3.247435e+01
2.610000e-06	-1.329917e-06	-7.393382e-10	-9.384436e+00	-5.014832e+01
2.620000e-06	-1.429601e-06	-1.017020e-09	-1.008784e+01	-6.814689e+01
2.630000e-06	-1.528896e-06	-1.294747e-09	-1.078851e+01	-8.642316e+01
2.640000e-06	-1.627722e-06	-1.575513e-09	-1.148586e+01	-1.049185e+02
2.650000e-06	-1.725913e-06	-1.863915e-09	-1.217874e+01	-1.235638e+02
2.660000e-06	-1.823497e-06	-2.158402e-09	-1.286733e+01	-1.422810e+02
2.670000e-06	-1.920548e-06	-2.451836e-09	-1.355217e+01	-1.609858e+02
2.680000e-06	-2.017019e-06	-2.737329e-09	-1.423290e+01	-1.795909e+02
2.690000e-06	-2.112862e-06	-3.016715e-09	-1.490921e+01	-1.980094e+02
2.700000e-06	-2.207976e-06	-3.294136e-09	-1.558037e+01	-2.161583e+02
2.710000e-06	-2.302199e-06	-3.570060e-09	-1.624524e+01	-2.339620e+02
2.720000e-06	-2.395376e-06	-3.840055e-09	-1.690274e+01	-2.513555e+02
2.730000e-06	-2.487510e-06	-4.098337e-09	-1.755288e+01	-2.682860e+02
2.740000e-06	-2.578775e-06	-4.345614e-09	-1.819688e+01	-2.847148e+02
2.750000e-06	-2.669194e-06	-4.585972e-09	-1.883491e+01	-3.006172e+02
2.760000e-06	-2.758647e-06	-4.822312e-09	-1.946613e+01	-3.159819e+02
2.770000e-06	-2.847181e-06	-5.052831e-09	-2.009086e+01	-3.308091e+02
2.780000e-06	-2.934905e-06	-5.274453e-09	-2.070988e+01	-3.451081e+02
2.790000e-06	-3.021654e-06	-5.486421e-09	-2.132201e+01	-3.588948e+02
2.800000e-06	-3.107160e-06	-5.691298e-09	-2.192538e+01	-3.721881e+02
2.810000e-06	-3.191434e-06	-5.889429e-09	-2.252005e+01	-3.850076e+02
2.820000e-06	-3.274622e-06	-6.078922e-09	-2.310706e+01	-3.973712e+02
2.830000e-06	-3.356786e-06	-6.260107e-09	-2.368684e+01	-4.092931e+02
2.840000e-06	-3.437887e-06	-6.432633e-09	-2.425912e+01	-4.207834e+02
2.850000e-06	-3.517868e-06	-6.597146e-09	-2.482350e+01	-4.318479e+02
2.860000e-06	-3.596455e-06	-6.755507e-09	-2.537804e+01	-4.424888e+02
2.870000e-06	-3.673425e-06	-6.910480e-09	-2.592117e+01	-4.527064e+02
2.880000e-06	-3.748935e-06	-7.062176e-09	-2.645400e+01	-4.625001e+02
2.890000e-06	-3.823003e-06	-7.207310e-09	-2.697665e+01	-4.718707e+02
2.900000e-06	-3.895728e-06	-7.346151e-09	-2.748983e+01	-4.808216e+02
2.910000e-06	-3.967190e-06	-7.479201e-09	-2.799410e+01	-4.893601e+02
2.920000e-06	-4.037065e-06	-7.605837e-09	-2.848716e+01	-4.974979e+02
2.930000e-06	-4.105334e-06	-7.725331e-09	-2.896890e+01	-5.052511e+02
2.940000e-06	-4.172207e-06	-7.838870e-09	-2.944078e+01	-5.126392e+02
