# Temperatura_=_76.9
# Concentracion g/m^3_=_15000.0
# C_Vs_to_Am_M_A/Vsm_=_65563218390.804596
# pendiente_HvsI_1/m_=_3716.3
# ordenada_HvsI_A/m_=_1297.0
# frecuencia_Hz_=_301596.9255128564

Tiempo_(s)	Campo_(V.s)	Magnetizacion_(V.s)	Campo_(kA/m)	Magnetizacion_(A/m)
0.000000e+00	-5.410028e-06	-9.541391e-09	-3.833565e+01	-6.229492e+02
1.000000e-08	-5.407330e-06	-9.536959e-09	-3.831653e+01	-6.226790e+02
2.000000e-08	-5.402823e-06	-9.529711e-09	-3.828459e+01	-6.222556e+02
3.000000e-08	-5.396684e-06	-9.522084e-09	-3.824109e+01	-6.216762e+02
4.000000e-08	-5.388921e-06	-9.510965e-09	-3.818608e+01	-6.209417e+02
5.000000e-08	-5.379314e-06	-9.495354e-09	-3.811800e+01	-6.200582e+02
6.000000e-08	-5.367691e-06	-9.476221e-09	-3.803565e+01	-6.190359e+02
7.000000e-08	-5.354121e-06	-9.456831e-09	-3.793949e+01	-6.178896e+02
8.000000e-08	-5.338431e-06	-9.466085e-09	-3.782831e+01	-6.166371e+02
9.000000e-08	-5.320550e-06	-9.472722e-09	-3.770160e+01	-6.152972e+02
1.000000e-07	-5.300612e-06	-9.435025e-09	-3.756032e+01	-6.138883e+02
1.100000e-07	-5.278803e-06	-9.394052e-09	-3.740578e+01	-6.124255e+02
1.200000e-07	-5.255294e-06	-9.329635e-09	-3.723920e+01	-6.109196e+02
1.300000e-07	-5.230106e-06	-9.269748e-09	-3.706071e+01	-6.093748e+02
1.400000e-07	-5.203233e-06	-9.323253e-09	-3.687029e+01	-6.077883e+02
1.500000e-07	-5.174812e-06	-9.289149e-09	-3.666890e+01	-6.061502e+02
1.600000e-07	-5.145010e-06	-9.217467e-09	-3.645772e+01	-6.044439e+02
1.700000e-07	-5.113591e-06	-9.260789e-09	-3.623509e+01	-6.026482e+02
1.800000e-07	-5.080074e-06	-9.174456e-09	-3.599758e+01	-6.007389e+02
1.900000e-07	-5.044676e-06	-9.095446e-09	-3.574675e+01	-5.986911e+02
2.000000e-07	-5.007772e-06	-9.122023e-09	-3.548525e+01	-5.964822e+02
2.100000e-07	-4.969176e-06	-9.054839e-09	-3.521175e+01	-5.940934e+02
2.200000e-07	-4.928721e-06	-9.008651e-09	-3.492509e+01	-5.915116e+02
2.300000e-07	-4.886289e-06	-9.004657e-09	-3.462442e+01	-5.887309e+02
2.400000e-07	-4.841944e-06	-8.921245e-09	-3.431019e+01	-5.857519e+02
2.500000e-07	-4.795817e-06	-8.855715e-09	-3.398333e+01	-5.825817e+02
2.600000e-07	-4.747766e-06	-8.814050e-09	-3.364283e+01	-5.792328e+02
2.700000e-07	-4.697604e-06	-8.766530e-09	-3.328739e+01	-5.757204e+02
2.800000e-07	-4.645413e-06	-8.718671e-09	-3.291756e+01	-5.720615e+02
2.900000e-07	-4.591469e-06	-8.639547e-09	-3.253531e+01	-5.682719e+02
3.000000e-07	-4.535878e-06	-8.564405e-09	-3.214139e+01	-5.643648e+02
3.100000e-07	-4.478524e-06	-8.539103e-09	-3.173498e+01	-5.603495e+02
3.200000e-07	-4.419346e-06	-8.505655e-09	-3.131564e+01	-5.562304e+02
3.300000e-07	-4.358603e-06	-8.410565e-09	-3.088521e+01	-5.520073e+02
3.400000e-07	-4.296481e-06	-8.333516e-09	-3.044501e+01	-5.476755e+02
3.500000e-07	-4.232940e-06	-8.274962e-09	-2.999476e+01	-5.432271e+02
3.600000e-07	-4.167857e-06	-8.193532e-09	-2.953358e+01	-5.386525e+02
3.700000e-07	-4.101108e-06	-8.133157e-09	-2.906059e+01	-5.339414e+02
3.800000e-07	-4.032816e-06	-8.076444e-09	-2.857667e+01	-5.290847e+02
3.900000e-07	-3.963160e-06	-7.981631e-09	-2.808309e+01	-5.240753e+02
4.000000e-07	-3.892256e-06	-7.876828e-09	-2.758066e+01	-5.189090e+02
4.100000e-07	-3.820013e-06	-7.801166e-09	-2.706875e+01	-5.135845e+02
4.200000e-07	-3.746287e-06	-7.742063e-09	-2.654632e+01	-5.081033e+02
4.300000e-07	-3.671020e-06	-7.664308e-09	-2.601298e+01	-5.024689e+02
4.400000e-07	-3.594209e-06	-7.567687e-09	-2.546869e+01	-4.966863e+02
4.500000e-07	-3.515938e-06	-7.469758e-09	-2.491406e+01	-4.907603e+02
4.600000e-07	-3.436291e-06	-7.378501e-09	-2.434968e+01	-4.846951e+02
4.700000e-07	-3.355340e-06	-7.290514e-09	-2.377605e+01	-4.784934e+02
4.800000e-07	-3.273240e-06	-7.200420e-09	-2.319429e+01	-4.721558e+02
4.900000e-07	-3.190065e-06	-7.104875e-09	-2.260491e+01	-4.656806e+02
5.000000e-07	-3.105857e-06	-6.992561e-09	-2.200821e+01	-4.590643e+02
5.100000e-07	-3.020693e-06	-6.874687e-09	-2.140474e+01	-4.523019e+02
5.200000e-07	-2.934599e-06	-6.771159e-09	-2.079467e+01	-4.453877e+02
5.300000e-07	-2.847579e-06	-6.674772e-09	-2.017805e+01	-4.383156e+02
5.400000e-07	-2.759516e-06	-6.566369e-09	-1.955403e+01	-4.310803e+02
5.500000e-07	-2.670351e-06	-6.442869e-09	-1.892220e+01	-4.236778e+02
5.600000e-07	-2.580033e-06	-6.318872e-09	-1.828220e+01	-4.161049e+02
5.700000e-07	-2.488619e-06	-6.205719e-09	-1.763444e+01	-4.083602e+02
5.800000e-07	-2.396369e-06	-6.098939e-09	-1.698075e+01	-4.004432e+02
5.900000e-07	-2.303364e-06	-5.979207e-09	-1.632172e+01	-3.923538e+02
6.000000e-07	-2.209560e-06	-5.845053e-09	-1.565702e+01	-3.840921e+02
6.100000e-07	-2.115020e-06	-5.708680e-09	-1.498711e+01	-3.756577e+02
6.200000e-07	-2.019786e-06	-5.574422e-09	-1.431228e+01	-3.670491e+02
6.300000e-07	-1.923802e-06	-5.443011e-09	-1.363212e+01	-3.582634e+02
6.400000e-07	-1.827037e-06	-5.311375e-09	-1.294645e+01	-3.492965e+02
6.500000e-07	-1.729484e-06	-5.171845e-09	-1.225518e+01	-3.401429e+02
6.600000e-07	-1.631130e-06	-5.020667e-09	-1.155825e+01	-3.307960e+02
6.700000e-07	-1.532110e-06	-4.868783e-09	-1.085659e+01	-3.212490e+02
6.800000e-07	-1.432606e-06	-4.722924e-09	-1.015150e+01	-3.114950e+02
6.900000e-07	-1.332708e-06	-4.576734e-09	-9.443616e+00	-3.015278e+02
7.000000e-07	-1.232460e-06	-4.423039e-09	-8.733252e+00	-2.913420e+02
7.100000e-07	-1.131892e-06	-4.259624e-09	-8.020629e+00	-2.809337e+02
7.200000e-07	-1.030951e-06	-4.091647e-09	-7.305353e+00	-2.703000e+02
7.300000e-07	-9.295846e-07	-3.923918e-09	-6.587069e+00	-2.594394e+02
7.400000e-07	-8.278669e-07	-3.756781e-09	-5.866294e+00	-2.483512e+02
7.500000e-07	-7.258938e-07	-3.585588e-09	-5.143709e+00	-2.370348e+02
7.600000e-07	-6.236831e-07	-3.405592e-09	-4.419440e+00	-2.254898e+02
7.700000e-07	-5.212747e-07	-3.219784e-09	-3.693771e+00	-2.137149e+02
7.800000e-07	-4.187181e-07	-3.035945e-09	-2.967051e+00	-2.017077e+02
7.900000e-07	-3.160361e-07	-2.854820e-09	-2.239443e+00	-1.894644e+02
8.000000e-07	-2.132682e-07	-2.669082e-09	-1.511226e+00	-1.769791e+02
8.100000e-07	-1.104031e-07	-2.474344e-09	-7.823206e-01	-1.642443e+02
8.200000e-07	-7.495199e-09	-2.273246e-09	-5.311124e-02	-1.512500e+02
8.300000e-07	9.544072e-08	-2.070761e-09	6.762962e-01	-1.379848e+02
8.400000e-07	1.984006e-07	-1.866470e-09	1.405874e+00	-1.244350e+02
8.500000e-07	3.013128e-07	-1.658584e-09	2.135113e+00	-1.105857e+02
8.600000e-07	4.041566e-07	-1.444444e-09	2.863868e+00	-9.642074e+01
8.700000e-07	5.068818e-07	-1.220875e-09	3.591782e+00	-8.192321e+01
8.800000e-07	6.094337e-07	-9.908478e-10	4.318468e+00	-6.707645e+01
8.900000e-07	7.118342e-07	-7.568874e-10	5.044082e+00	-5.186473e+01
9.000000e-07	8.140494e-07	-5.169530e-10	5.768383e+00	-3.627450e+01
9.100000e-07	9.159414e-07	-2.728584e-10	6.490393e+00	-2.029575e+01
9.200000e-07	1.017509e-06	-2.510685e-11	7.210101e+00	-3.923624e+00
9.300000e-07	1.118734e-06	2.294069e-10	7.927387e+00	1.283991e+01
9.400000e-07	1.219523e-06	4.904442e-10	8.641581e+00	2.998438e+01
9.500000e-07	1.319840e-06	7.549861e-10	9.352432e+00	4.748932e+01
9.600000e-07	1.419710e-06	1.022509e-09	1.006012e+01	6.532311e+01
9.700000e-07	1.519163e-06	1.295890e-09	1.076484e+01	8.344235e+01
9.800000e-07	1.618161e-06	1.573850e-09	1.146634e+01	1.017919e+02
9.900000e-07	1.716571e-06	1.853062e-09	1.216368e+01	1.203058e+02
1.000000e-06	1.814107e-06	2.131494e-09	1.285482e+01	1.389086e+02
1.010000e-06	1.910606e-06	2.410408e-09	1.353862e+01	1.575184e+02
1.020000e-06	2.006294e-06	2.691851e-09	1.421667e+01	1.760491e+02
1.030000e-06	2.101403e-06	2.973696e-09	1.489061e+01	1.944146e+02
1.040000e-06	2.195827e-06	3.251922e-09	1.555971e+01	2.125317e+02
1.050000e-06	2.289434e-06	3.521188e-09	1.622301e+01	2.303242e+02
1.060000e-06	2.382229e-06	3.780700e-09	1.688056e+01	2.477257e+02
1.070000e-06	2.474289e-06	4.033923e-09	1.753290e+01	2.646818e+02
1.080000e-06	2.565714e-06	4.283100e-09	1.818074e+01	2.811515e+02
1.090000e-06	2.656333e-06	4.527145e-09	1.882287e+01	2.971078e+02
1.100000e-06	2.745601e-06	4.761240e-09	1.945542e+01	3.125366e+02
1.110000e-06	2.833578e-06	4.984995e-09	2.007883e+01	3.274356e+02
1.120000e-06	2.920735e-06	5.201554e-09	2.069643e+01	3.418117e+02
1.130000e-06	3.007005e-06	5.412684e-09	2.130774e+01	3.556782e+02
1.140000e-06	3.092260e-06	5.617415e-09	2.191186e+01	3.690520e+02
1.150000e-06	3.176528e-06	5.814480e-09	2.250898e+01	3.819509e+02
1.160000e-06	3.259932e-06	6.003940e-09	2.309999e+01	3.943912e+02
1.170000e-06	3.342228e-06	6.185550e-09	2.368315e+01	4.063865e+02
1.180000e-06	3.423147e-06	6.359616e-09	2.425654e+01	4.179461e+02
1.190000e-06	3.502830e-06	6.527910e-09	2.482118e+01	4.290760e+02
1.200000e-06	3.581212e-06	6.691097e-09	2.537659e+01	4.397787e+02
1.210000e-06	3.658292e-06	6.848321e-09	2.592279e+01	4.500550e+02
1.220000e-06	3.734148e-06	6.998854e-09	2.646030e+01	4.599054e+02
1.230000e-06	3.808587e-06	7.142995e-09	2.698778e+01	4.693316e+02
1.240000e-06	3.881312e-06	7.281560e-09	2.750311e+01	4.783381e+02
1.250000e-06	3.952467e-06	7.412918e-09	2.800732e+01	4.869331e+02
1.260000e-06	4.022318e-06	7.536084e-09	2.850229e+01	4.951288e+02
1.270000e-06	4.090825e-06	7.652166e-09	2.898773e+01	5.029417e+02
1.280000e-06	4.158026e-06	7.763133e-09	2.946391e+01	5.103915e+02
1.290000e-06	4.223610e-06	7.869531e-09	2.992865e+01	5.175003e+02
1.300000e-06	4.287442e-06	7.971222e-09	3.038096e+01	5.242911e+02
1.310000e-06	4.349794e-06	8.069674e-09	3.082280e+01	5.307862e+02
1.320000e-06	4.410720e-06	8.164292e-09	3.125451e+01	5.370061e+02
1.330000e-06	4.470280e-06	8.254160e-09	3.167656e+01	5.429683e+02
1.340000e-06	4.528219e-06	8.340893e-09	3.208712e+01	5.486869e+02
1.350000e-06	4.584322e-06	8.424962e-09	3.248467e+01	5.541719e+02
1.360000e-06	4.638730e-06	8.504084e-09	3.287021e+01	5.594299e+02
1.370000e-06	4.691526e-06	8.578262e-09	3.324431e+01	5.644647e+02
1.380000e-06	4.742456e-06	8.649659e-09	3.360521e+01	5.692779e+02
1.390000e-06	4.791274e-06	8.719479e-09	3.395113e+01	5.738699e+02
1.400000e-06	4.838252e-06	8.786771e-09	3.428402e+01	5.782408e+02
1.410000e-06	4.883625e-06	8.850710e-09	3.460554e+01	5.823913e+02
1.420000e-06	4.927404e-06	8.910797e-09	3.491576e+01	5.863227e+02
1.430000e-06	4.969357e-06	8.966785e-09	3.521304e+01	5.900374e+02
1.440000e-06	5.009405e-06	9.019968e-09	3.549682e+01	5.935385e+02
1.450000e-06	5.047774e-06	9.070223e-09	3.576870e+01	5.968297e+02
1.460000e-06	5.084541e-06	9.116717e-09	3.602924e+01	5.999149e+02
1.470000e-06	5.119641e-06	9.159117e-09	3.627796e+01	6.027977e+02
1.480000e-06	5.152866e-06	9.196576e-09	3.651339e+01	6.054813e+02
1.490000e-06	5.184234e-06	9.228854e-09	3.673566e+01	6.079683e+02
1.500000e-06	5.213841e-06	9.258712e-09	3.694546e+01	6.102611e+02
1.510000e-06	5.241734e-06	9.288357e-09	3.714311e+01	6.123619e+02
1.520000e-06	5.267772e-06	9.317549e-09	3.732762e+01	6.142735e+02
1.530000e-06	5.291680e-06	9.344845e-09	3.749703e+01	6.159995e+02
1.540000e-06	5.313619e-06	9.367705e-09	3.765249e+01	6.175450e+02
1.550000e-06	5.333846e-06	9.387276e-09	3.779582e+01	6.189163e+02
1.560000e-06	5.352293e-06	9.404333e-09	3.792654e+01	6.201215e+02
1.570000e-06	5.368720e-06	9.418795e-09	3.804294e+01	6.211693e+02
1.580000e-06	5.383089e-06	9.431612e-09	3.814476e+01	6.220692e+02
1.590000e-06	5.395494e-06	9.442613e-09	3.823266e+01	6.228298e+02
1.600000e-06	5.405774e-06	9.452031e-09	3.830550e+01	6.234585e+02
1.610000e-06	5.413885e-06	9.460371e-09	3.836298e+01	6.239605e+02
1.620000e-06	5.420074e-06	9.466838e-09	3.840683e+01	6.243380e+02
1.630000e-06	5.424512e-06	9.471605e-09	3.843828e+01	6.245901e+02
1.640000e-06	5.427068e-06	9.474568e-09	3.845640e+01	6.247131e+02
1.650000e-06	5.427577e-06	9.474363e-09	3.846000e+01	6.247011e+02
1.660000e-06	5.426185e-06	9.470838e-09	3.845014e+01	6.245471e+02
1.670000e-06	5.423104e-06	9.466394e-09	3.842831e+01	6.242440e+02
1.680000e-06	5.418349e-06	9.460325e-09	3.839461e+01	6.237869e+02
1.690000e-06	5.411720e-06	9.450727e-09	3.834763e+01	6.231736e+02
1.700000e-06	5.403263e-06	9.439390e-09	3.828771e+01	6.224062e+02
1.710000e-06	5.393211e-06	9.427827e-09	3.821648e+01	6.214915e+02
1.720000e-06	5.381421e-06	9.424179e-09	3.813294e+01	6.204409e+02
1.730000e-06	5.367625e-06	9.386147e-09	3.803518e+01	6.192699e+02
1.740000e-06	5.351733e-06	9.334421e-09	3.792257e+01	6.179966e+02
1.750000e-06	5.333521e-06	9.320130e-09	3.779351e+01	6.166401e+02
1.760000e-06	5.312694e-06	9.308364e-09	3.764594e+01	6.152181e+02
1.770000e-06	5.289529e-06	9.338761e-09	3.748179e+01	6.137450e+02
1.780000e-06	5.265021e-06	9.333382e-09	3.730812e+01	6.122302e+02
1.790000e-06	5.239808e-06	9.213945e-09	3.712946e+01	6.106766e+02
1.800000e-06	5.213181e-06	9.221137e-09	3.694078e+01	6.090797e+02
1.810000e-06	5.184368e-06	9.232567e-09	3.673661e+01	6.074281e+02
1.820000e-06	5.153727e-06	9.154564e-09	3.651949e+01	6.057042e+02
1.830000e-06	5.121387e-06	9.212245e-09	3.629032e+01	6.038859e+02
1.840000e-06	5.087168e-06	9.208043e-09	3.604785e+01	6.019485e+02
1.850000e-06	5.051271e-06	9.149088e-09	3.579348e+01	5.998677e+02
1.860000e-06	5.013568e-06	9.175321e-09	3.552632e+01	5.976212e+02
1.870000e-06	4.973961e-06	9.081186e-09	3.524566e+01	5.951915e+02
1.880000e-06	4.932643e-06	9.012320e-09	3.495288e+01	5.925670e+02
1.890000e-06	4.889572e-06	9.034930e-09	3.464768e+01	5.897431e+02
1.900000e-06	4.844805e-06	8.979115e-09	3.433046e+01	5.867219e+02
1.910000e-06	4.798228e-06	8.949053e-09	3.400041e+01	5.835119e+02
1.920000e-06	4.749648e-06	8.872628e-09	3.365617e+01	5.801261e+02
1.930000e-06	4.699376e-06	8.786805e-09	3.329994e+01	5.765806e+02
1.940000e-06	4.647351e-06	8.785635e-09	3.293129e+01	5.728920e+02
1.950000e-06	4.593337e-06	8.734563e-09	3.254855e+01	5.690758e+02
1.960000e-06	4.537382e-06	8.637659e-09	3.215205e+01	5.651445e+02
1.970000e-06	4.479649e-06	8.560873e-09	3.174295e+01	5.611064e+02
1.980000e-06	4.420411e-06	8.518773e-09	3.132319e+01	5.569648e+02
1.990000e-06	4.359664e-06	8.456218e-09	3.089273e+01	5.527185e+02
2.000000e-06	4.297287e-06	8.391253e-09	3.045073e+01	5.483621e+02
2.010000e-06	4.233277e-06	8.350861e-09	2.999715e+01	5.438871e+02
2.020000e-06	4.167696e-06	8.254832e-09	2.953244e+01	5.392837e+02
2.030000e-06	4.100675e-06	8.152258e-09	2.905753e+01	5.345417e+02
2.040000e-06	4.032248e-06	8.090334e-09	2.857265e+01	5.296524e+02
2.050000e-06	3.962365e-06	8.042938e-09	2.807745e+01	5.246093e+02
2.060000e-06	3.890947e-06	7.968686e-09	2.757139e+01	5.194087e+02
2.070000e-06	3.818134e-06	7.861610e-09	2.705543e+01	5.140500e+02
2.080000e-06	3.743994e-06	7.767660e-09	2.653007e+01	5.085352e+02
2.090000e-06	3.668424e-06	7.686081e-09	2.599458e+01	5.028682e+02
2.100000e-06	3.591426e-06	7.605749e-09	2.544897e+01	4.970541e+02
2.110000e-06	3.512951e-06	7.523082e-09	2.489289e+01	4.910975e+02
2.120000e-06	3.433112e-06	7.438727e-09	2.432715e+01	4.850026e+02
2.130000e-06	3.352115e-06	7.329546e-09	2.375320e+01	4.787714e+02
2.140000e-06	3.270016e-06	7.210877e-09	2.317145e+01	4.724041e+02
2.150000e-06	3.186848e-06	7.116880e-09	2.258212e+01	4.658986e+02
2.160000e-06	3.102546e-06	7.036168e-09	2.198475e+01	4.592511e+02
2.170000e-06	3.017057e-06	6.942508e-09	2.137897e+01	4.524563e+02
2.180000e-06	2.930362e-06	6.820456e-09	2.076465e+01	4.455083e+02
2.190000e-06	2.842470e-06	6.701462e-09	2.014184e+01	4.384012e+02
2.200000e-06	2.753597e-06	6.600116e-09	1.951208e+01	4.311301e+02
2.210000e-06	2.663836e-06	6.503016e-09	1.887604e+01	4.236908e+02
2.220000e-06	2.573146e-06	6.388179e-09	1.823340e+01	4.160809e+02
2.230000e-06	2.481578e-06	6.256401e-09	1.758455e+01	4.082989e+02
2.240000e-06	2.389198e-06	6.127515e-09	1.692994e+01	4.003445e+02
2.250000e-06	2.296031e-06	6.001876e-09	1.626976e+01	3.922178e+02
2.260000e-06	2.202033e-06	5.881484e-09	1.560368e+01	3.839187e+02
2.270000e-06	2.107040e-06	5.764354e-09	1.493056e+01	3.754468e+02
2.280000e-06	2.011048e-06	5.638966e-09	1.425036e+01	3.668001e+02
2.290000e-06	1.914366e-06	5.492737e-09	1.356527e+01	3.579756e+02
2.300000e-06	1.817185e-06	5.344654e-09	1.287663e+01	3.489688e+02
2.310000e-06	1.719439e-06	5.211614e-09	1.218401e+01	3.397739e+02
2.320000e-06	1.621107e-06	5.081811e-09	1.148722e+01	3.303844e+02
2.330000e-06	1.522291e-06	4.937713e-09	1.078701e+01	3.207932e+02
2.340000e-06	1.423031e-06	4.777429e-09	1.008365e+01	3.109936e+02
2.350000e-06	1.323346e-06	4.617226e-09	9.377273e+00	3.009795e+02
2.360000e-06	1.223328e-06	4.464246e-09	8.668542e+00	2.907460e+02
2.370000e-06	1.122972e-06	4.313746e-09	7.957416e+00	2.802892e+02
2.380000e-06	1.022193e-06	4.157068e-09	7.243293e+00	2.696066e+02
2.390000e-06	9.209681e-07	3.989972e-09	6.526012e+00	2.586969e+02
2.400000e-06	8.194059e-07	3.815827e-09	5.806339e+00	2.475594e+02
2.410000e-06	7.174897e-07	3.640760e-09	5.084157e+00	2.361937e+02
2.420000e-06	6.152310e-07	3.466828e-09	4.359548e+00	2.245991e+02
2.430000e-06	5.127478e-07	3.291885e-09	3.633349e+00	2.127743e+02
2.440000e-06	4.100499e-07	3.108217e-09	2.905628e+00	2.007165e+02
2.450000e-06	3.071749e-07	2.912935e-09	2.176652e+00	1.884215e+02
2.460000e-06	2.041345e-07	2.715906e-09	1.446504e+00	1.758831e+02
2.470000e-06	1.009327e-07	2.525711e-09	7.152124e-01	1.630931e+02
2.480000e-06	-2.360578e-09	2.333717e-09	-1.672714e-02	1.500415e+02
2.490000e-06	-1.056675e-07	2.131633e-09	-7.487634e-01	1.367161e+02
2.500000e-06	-2.089284e-07	1.919843e-09	-1.480474e+00	1.231031e+02
2.510000e-06	-3.121363e-07	1.702766e-09	-2.211809e+00	1.091871e+02
2.520000e-06	-4.152661e-07	1.485823e-09	-2.942590e+00	9.495188e+01
2.530000e-06	-5.182505e-07	1.267528e-09	-3.672341e+00	8.038051e+01
2.540000e-06	-6.209775e-07	1.045851e-09	-4.400268e+00	6.545642e+01
2.550000e-06	-7.234053e-07	8.137186e-10	-5.126075e+00	5.016424e+01
2.560000e-06	-8.254630e-07	5.683016e-10	-5.849260e+00	3.449105e+01
2.570000e-06	-9.270887e-07	3.186000e-10	-6.569383e+00	1.842781e+01
2.580000e-06	-1.028224e-06	6.977090e-11	-7.286034e+00	1.970991e+00
2.590000e-06	-1.128832e-06	-1.819268e-10	-7.998940e+00	-1.487577e+01
2.600000e-06	-1.229041e-06	-4.442157e-10	-8.709025e+00	-3.209997e+01
2.610000e-06	-1.328886e-06	-7.163314e-10	-9.416529e+00	-4.967883e+01
2.620000e-06	-1.428332e-06	-9.920807e-10	-1.012121e+01	-6.757824e+01
2.630000e-06	-1.527309e-06	-1.269752e-09	-1.082257e+01	-8.575225e+01
2.640000e-06	-1.625747e-06	-1.550376e-09	-1.152010e+01	-1.041433e+02
2.650000e-06	-1.723537e-06	-1.837183e-09	-1.221305e+01	-1.226832e+02
2.660000e-06	-1.820704e-06	-2.129138e-09	-1.290157e+01	-1.412951e+02
2.670000e-06	-1.917308e-06	-2.419925e-09	-1.358611e+01	-1.598956e+02
2.680000e-06	-2.013377e-06	-2.703609e-09	-1.426686e+01	-1.783985e+02
2.690000e-06	-2.108926e-06	-2.981010e-09	-1.494392e+01	-1.967179e+02
2.700000e-06	-2.203668e-06	-3.255287e-09	-1.561527e+01	-2.147720e+02
2.710000e-06	-2.297250e-06	-3.528728e-09	-1.627840e+01	-2.324864e+02
2.720000e-06	-2.389750e-06	-3.797698e-09	-1.693385e+01	-2.497970e+02
2.730000e-06	-2.481445e-06	-4.055389e-09	-1.758360e+01	-2.666522e+02
2.740000e-06	-2.572317e-06	-4.302728e-09	-1.822753e+01	-2.830141e+02
2.750000e-06	-2.662240e-06	-4.542705e-09	-1.886472e+01	-2.988585e+02
2.760000e-06	-2.751220e-06	-4.777612e-09	-1.949524e+01	-3.141740e+02
2.770000e-06	-2.839428e-06	-5.006629e-09	-2.012028e+01	-3.289605e+02
2.780000e-06	-2.926900e-06	-5.228569e-09	-2.074011e+01	-3.432265e+02
2.790000e-06	-3.013185e-06	-5.441786e-09	-2.135153e+01	-3.569863e+02
2.800000e-06	-3.098079e-06	-5.647025e-09	-2.195310e+01	-3.702573e+02
2.810000e-06	-3.181955e-06	-5.843915e-09	-2.254744e+01	-3.830570e+02
2.820000e-06	-3.264861e-06	-6.031632e-09	-2.313492e+01	-3.954014e+02
2.830000e-06	-3.346677e-06	-6.212523e-09	-2.371467e+01	-4.073030e+02
2.840000e-06	-3.427406e-06	-6.385542e-09	-2.428672e+01	-4.187706e+02
2.850000e-06	-3.507049e-06	-6.551155e-09	-2.485107e+01	-4.298092e+02
2.860000e-06	-3.585240e-06	-6.709452e-09	-2.540513e+01	-4.404209e+02
2.870000e-06	-3.661766e-06	-6.862790e-09	-2.594740e+01	-4.506062e+02
2.880000e-06	-3.736887e-06	-7.012874e-09	-2.647971e+01	-4.603659e+02
2.890000e-06	-3.810630e-06	-7.157091e-09	-2.700226e+01	-4.697021e+02
2.900000e-06	-3.883075e-06	-7.295858e-09	-2.751561e+01	-4.786200e+02
2.910000e-06	-3.954116e-06	-7.428126e-09	-2.801900e+01	-4.871286e+02
2.920000e-06	-4.023471e-06	-7.553342e-09	-2.851046e+01	-4.952412e+02
2.930000e-06	-4.091354e-06	-7.673466e-09	-2.899148e+01	-5.029749e+02
2.940000e-06	-4.157896e-06	-7.788376e-09	-2.946300e+01	-5.103501e+02
