# Temperatura_=_39.89
# Concentracion g/m^3_=_15000.0
# C_Vs_to_Am_M_A/Vsm_=_65563218390.804596
# pendiente_HvsI_1/m_=_3716.3
# ordenada_HvsI_A/m_=_1297.0
# frecuencia_Hz_=_301590.58051015896

Tiempo_(s)	Campo_(V.s)	Magnetizacion_(V.s)	Campo_(kA/m)	Magnetizacion_(A/m)
0.000000e+00	-5.396468e-06	-8.170147e-09	-3.833946e+01	-5.328059e+02
1.000000e-08	-5.393870e-06	-8.167733e-09	-3.832100e+01	-5.325907e+02
2.000000e-08	-5.389454e-06	-8.161924e-09	-3.828962e+01	-5.322701e+02
3.000000e-08	-5.383395e-06	-8.156307e-09	-3.824658e+01	-5.318426e+02
4.000000e-08	-5.375743e-06	-8.146574e-09	-3.819222e+01	-5.313078e+02
5.000000e-08	-5.366276e-06	-8.132052e-09	-3.812495e+01	-5.306670e+02
6.000000e-08	-5.354768e-06	-8.113748e-09	-3.804320e+01	-5.299238e+02
7.000000e-08	-5.341375e-06	-8.087189e-09	-3.794805e+01	-5.290848e+02
8.000000e-08	-5.325865e-06	-8.098211e-09	-3.783786e+01	-5.281590e+02
9.000000e-08	-5.308100e-06	-8.135415e-09	-3.771164e+01	-5.271579e+02
1.000000e-07	-5.288333e-06	-8.100259e-09	-3.757121e+01	-5.260935e+02
1.100000e-07	-5.266655e-06	-8.058629e-09	-3.741720e+01	-5.249780e+02
1.200000e-07	-5.243210e-06	-8.007443e-09	-3.725063e+01	-5.238217e+02
1.300000e-07	-5.218197e-06	-7.900781e-09	-3.707292e+01	-5.226318e+02
1.400000e-07	-5.191645e-06	-8.003807e-09	-3.688428e+01	-5.214111e+02
1.500000e-07	-5.163483e-06	-8.030073e-09	-3.668420e+01	-5.201573e+02
1.600000e-07	-5.133823e-06	-7.874272e-09	-3.647348e+01	-5.188628e+02
1.700000e-07	-5.102613e-06	-7.955274e-09	-3.625175e+01	-5.175149e+02
1.800000e-07	-5.069263e-06	-7.876398e-09	-3.601482e+01	-5.160973e+02
1.900000e-07	-5.034019e-06	-7.752368e-09	-3.576442e+01	-5.145909e+02
2.000000e-07	-4.997299e-06	-7.895457e-09	-3.550354e+01	-5.129760e+02
2.100000e-07	-4.958804e-06	-7.814669e-09	-3.523005e+01	-5.112339e+02
2.200000e-07	-4.918492e-06	-7.709958e-09	-3.494365e+01	-5.093492e+02
2.300000e-07	-4.876279e-06	-7.767919e-09	-3.464375e+01	-5.073107e+02
2.400000e-07	-4.832177e-06	-7.700426e-09	-3.433043e+01	-5.051123e+02
2.500000e-07	-4.786323e-06	-7.664947e-09	-3.400466e+01	-5.027539e+02
2.600000e-07	-4.738557e-06	-7.621094e-09	-3.366530e+01	-5.002403e+02
2.700000e-07	-4.688664e-06	-7.543839e-09	-3.331083e+01	-4.975809e+02
2.800000e-07	-4.636667e-06	-7.527293e-09	-3.294141e+01	-4.947879e+02
2.900000e-07	-4.582801e-06	-7.483473e-09	-3.255872e+01	-4.918746e+02
3.000000e-07	-4.527320e-06	-7.441381e-09	-3.216456e+01	-4.888542e+02
3.100000e-07	-4.470168e-06	-7.412027e-09	-3.175852e+01	-4.857375e+02
3.200000e-07	-4.411204e-06	-7.370136e-09	-3.133961e+01	-4.825325e+02
3.300000e-07	-4.350644e-06	-7.284100e-09	-3.090935e+01	-4.792429e+02
3.400000e-07	-4.288616e-06	-7.220847e-09	-3.046868e+01	-4.758688e+02
3.500000e-07	-4.225228e-06	-7.220959e-09	-3.001833e+01	-4.724061e+02
3.600000e-07	-4.160286e-06	-7.148685e-09	-2.955694e+01	-4.688480e+02
3.700000e-07	-4.093590e-06	-7.067278e-09	-2.908310e+01	-4.651859e+02
3.800000e-07	-4.025391e-06	-7.029542e-09	-2.859858e+01	-4.614106e+02
3.900000e-07	-3.955857e-06	-6.958839e-09	-2.810457e+01	-4.575134e+02
4.000000e-07	-3.885173e-06	-6.889222e-09	-2.760239e+01	-4.534872e+02
4.100000e-07	-3.813241e-06	-6.826705e-09	-2.709135e+01	-4.493273e+02
4.200000e-07	-3.739762e-06	-6.782422e-09	-2.656931e+01	-4.450313e+02
4.300000e-07	-3.664711e-06	-6.712403e-09	-2.603611e+01	-4.405990e+02
4.400000e-07	-3.588189e-06	-6.628379e-09	-2.549246e+01	-4.360322e+02
4.500000e-07	-3.510247e-06	-6.559481e-09	-2.493871e+01	-4.313337e+02
4.600000e-07	-3.430865e-06	-6.493398e-09	-2.437474e+01	-4.265065e+02
4.700000e-07	-3.350180e-06	-6.416756e-09	-2.380151e+01	-4.215530e+02
4.800000e-07	-3.268320e-06	-6.324931e-09	-2.321993e+01	-4.164746e+02
4.900000e-07	-3.185346e-06	-6.258558e-09	-2.263044e+01	-4.112710e+02
5.000000e-07	-3.101398e-06	-6.184846e-09	-2.203403e+01	-4.059402e+02
5.100000e-07	-3.016514e-06	-6.089527e-09	-2.143096e+01	-4.004787e+02
5.200000e-07	-2.930645e-06	-5.998051e-09	-2.082090e+01	-3.948823e+02
5.300000e-07	-2.843805e-06	-5.912229e-09	-2.020394e+01	-3.891461e+02
5.400000e-07	-2.756043e-06	-5.820835e-09	-1.958044e+01	-3.832657e+02
5.500000e-07	-2.667331e-06	-5.725891e-09	-1.895018e+01	-3.772374e+02
5.600000e-07	-2.577415e-06	-5.634266e-09	-1.831136e+01	-3.710586e+02
5.700000e-07	-2.486316e-06	-5.541590e-09	-1.766415e+01	-3.647283e+02
5.800000e-07	-2.394375e-06	-5.441783e-09	-1.701095e+01	-3.582467e+02
5.900000e-07	-2.301740e-06	-5.337248e-09	-1.635282e+01	-3.516147e+02
6.000000e-07	-2.208302e-06	-5.233064e-09	-1.568898e+01	-3.448338e+02
6.100000e-07	-2.114034e-06	-5.126751e-09	-1.501925e+01	-3.379052e+02
6.200000e-07	-2.019040e-06	-5.020333e-09	-1.434436e+01	-3.308290e+02
6.300000e-07	-1.923326e-06	-4.911711e-09	-1.366436e+01	-3.236042e+02
6.400000e-07	-1.826872e-06	-4.800295e-09	-1.297910e+01	-3.162279e+02
6.500000e-07	-1.729682e-06	-4.682854e-09	-1.228861e+01	-3.086953e+02
6.600000e-07	-1.631709e-06	-4.558979e-09	-1.159256e+01	-3.010000e+02
6.700000e-07	-1.532982e-06	-4.435168e-09	-1.089114e+01	-2.931342e+02
6.800000e-07	-1.433676e-06	-4.313365e-09	-1.018562e+01	-2.850896e+02
6.900000e-07	-1.333906e-06	-4.190468e-09	-9.476795e+00	-2.768574e+02
7.000000e-07	-1.233793e-06	-4.063784e-09	-8.765541e+00	-2.684294e+02
7.100000e-07	-1.133397e-06	-3.931614e-09	-8.052272e+00	-2.597986e+02
7.200000e-07	-1.032643e-06	-3.792116e-09	-7.336461e+00	-2.509590e+02
7.300000e-07	-9.315762e-07	-3.651160e-09	-6.618426e+00	-2.419063e+02
7.400000e-07	-8.302197e-07	-3.507836e-09	-5.898334e+00	-2.326375e+02
7.500000e-07	-7.285663e-07	-3.360731e-09	-5.176133e+00	-2.231509e+02
7.600000e-07	-6.266224e-07	-3.211119e-09	-4.451868e+00	-2.134453e+02
7.700000e-07	-5.244149e-07	-3.057731e-09	-3.725730e+00	-2.035199e+02
7.800000e-07	-4.220712e-07	-2.903776e-09	-2.998624e+00	-1.933735e+02
7.900000e-07	-3.196512e-07	-2.746831e-09	-2.270977e+00	-1.830041e+02
8.000000e-07	-2.171344e-07	-2.583421e-09	-1.542641e+00	-1.724086e+02
8.100000e-07	-1.145293e-07	-2.415312e-09	-8.136791e-01	-1.615825e+02
8.200000e-07	-1.183386e-08	-2.244626e-09	-8.407423e-02	-1.505196e+02
8.300000e-07	9.091002e-08	-2.072681e-09	6.458745e-01	-1.392123e+02
8.400000e-07	1.935966e-07	-1.897604e-09	1.375416e+00	-1.276515e+02
8.500000e-07	2.962030e-07	-1.715634e-09	2.104388e+00	-1.158268e+02
8.600000e-07	3.987321e-07	-1.529417e-09	2.832811e+00	-1.037270e+02
8.700000e-07	5.011637e-07	-1.338695e-09	3.560541e+00	-9.134009e+01
8.800000e-07	6.034725e-07	-1.144461e-09	4.287398e+00	-7.865406e+01
8.900000e-07	7.055812e-07	-9.484627e-10	5.012834e+00	-6.565713e+01
9.000000e-07	8.074723e-07	-7.489651e-10	5.736724e+00	-5.233858e+01
9.100000e-07	9.091025e-07	-5.466243e-10	6.458761e+00	-3.868950e+01
9.200000e-07	1.010381e-06	-3.363797e-10	7.178298e+00	-2.470380e+01
9.300000e-07	1.111281e-06	-1.198101e-10	7.895150e+00	-1.037936e+01
9.400000e-07	1.211820e-06	1.025613e-10	8.609430e+00	4.280737e+00
9.500000e-07	1.312013e-06	3.297160e-10	9.321255e+00	1.926688e+01
9.600000e-07	1.411786e-06	5.627948e-10	1.003010e+01	3.456180e+01
9.700000e-07	1.511050e-06	8.023386e-10	1.073533e+01	5.013952e+01
9.800000e-07	1.609708e-06	1.043306e-09	1.143625e+01	6.596484e+01
9.900000e-07	1.707635e-06	1.286064e-09	1.213197e+01	8.199316e+01
1.000000e-06	1.804804e-06	1.530243e-09	1.282231e+01	9.817104e+01
1.010000e-06	1.901223e-06	1.777845e-09	1.350732e+01	1.144373e+02
1.020000e-06	1.996837e-06	2.027633e-09	1.418662e+01	1.307248e+02
1.030000e-06	2.091673e-06	2.276381e-09	1.486039e+01	1.469628e+02
1.040000e-06	2.185782e-06	2.522871e-09	1.552899e+01	1.630796e+02
1.050000e-06	2.279119e-06	2.763959e-09	1.619211e+01	1.790054e+02
1.060000e-06	2.371754e-06	3.000645e-09	1.685024e+01	1.946753e+02
1.070000e-06	2.463724e-06	3.232060e-09	1.750364e+01	2.100315e+02
1.080000e-06	2.554916e-06	3.458934e-09	1.815152e+01	2.250255e+02
1.090000e-06	2.645132e-06	3.679841e-09	1.879246e+01	2.396189e+02
1.100000e-06	2.734183e-06	3.894019e-09	1.942513e+01	2.537844e+02
1.110000e-06	2.822112e-06	4.100848e-09	2.004982e+01	2.675049e+02
1.120000e-06	2.909095e-06	4.300489e-09	2.066780e+01	2.807722e+02
1.130000e-06	2.995201e-06	4.495534e-09	2.127954e+01	2.935858e+02
1.140000e-06	3.080375e-06	4.685759e-09	2.188467e+01	3.059500e+02
1.150000e-06	3.164582e-06	4.868828e-09	2.248292e+01	3.178722e+02
1.160000e-06	3.247784e-06	5.043425e-09	2.307404e+01	3.293608e+02
1.170000e-06	3.329841e-06	5.212496e-09	2.365701e+01	3.404232e+02
1.180000e-06	3.410616e-06	5.375697e-09	2.423088e+01	3.510652e+02
1.190000e-06	3.490125e-06	5.531548e-09	2.479576e+01	3.612901e+02
1.200000e-06	3.568408e-06	5.677695e-09	2.535192e+01	3.710997e+02
1.210000e-06	3.645461e-06	5.818813e-09	2.589934e+01	3.804944e+02
1.220000e-06	3.721208e-06	5.955548e-09	2.643750e+01	3.894749e+02
1.230000e-06	3.795467e-06	6.086246e-09	2.696507e+01	3.980435e+02
1.240000e-06	3.868120e-06	6.211089e-09	2.748124e+01	4.062055e+02
1.250000e-06	3.939325e-06	6.328980e-09	2.798712e+01	4.139701e+02
1.260000e-06	4.009137e-06	6.439495e-09	2.848310e+01	4.213509e+02
1.270000e-06	4.077562e-06	6.544331e-09	2.896923e+01	4.283661e+02
1.280000e-06	4.144603e-06	6.644053e-09	2.944552e+01	4.350376e+02
1.290000e-06	4.210021e-06	6.738118e-09	2.991029e+01	4.413901e+02
1.300000e-06	4.273759e-06	6.829571e-09	3.036312e+01	4.474490e+02
1.310000e-06	4.336000e-06	6.917201e-09	3.080531e+01	4.532391e+02
1.320000e-06	4.396888e-06	7.001669e-09	3.123790e+01	4.587828e+02
1.330000e-06	4.456339e-06	7.084019e-09	3.166027e+01	4.640986e+02
1.340000e-06	4.514109e-06	7.164041e-09	3.207070e+01	4.692000e+02
1.350000e-06	4.570175e-06	7.239469e-09	3.246902e+01	4.740951e+02
1.360000e-06	4.624623e-06	7.308120e-09	3.285585e+01	4.787872e+02
1.370000e-06	4.677273e-06	7.374502e-09	3.322991e+01	4.832752e+02
1.380000e-06	4.727989e-06	7.438892e-09	3.359022e+01	4.875548e+02
1.390000e-06	4.776757e-06	7.501090e-09	3.393669e+01	4.916203e+02
1.400000e-06	4.823680e-06	7.559377e-09	3.427006e+01	4.954662e+02
1.410000e-06	4.868982e-06	7.612529e-09	3.459191e+01	4.990884e+02
1.420000e-06	4.912749e-06	7.662837e-09	3.490285e+01	5.024854e+02
1.430000e-06	4.954780e-06	7.710406e-09	3.520146e+01	5.056591e+02
1.440000e-06	4.994886e-06	7.754466e-09	3.548640e+01	5.086146e+02
1.450000e-06	5.033250e-06	7.795570e-09	3.575896e+01	5.113605e+02
1.460000e-06	5.070016e-06	7.833420e-09	3.602017e+01	5.139073e+02
1.470000e-06	5.105103e-06	7.866839e-09	3.626944e+01	5.162671e+02
1.480000e-06	5.138304e-06	7.898336e-09	3.650532e+01	5.184520e+02
1.490000e-06	5.169564e-06	7.927774e-09	3.672741e+01	5.204732e+02
1.500000e-06	5.199084e-06	7.953215e-09	3.693713e+01	5.223402e+02
1.510000e-06	5.227035e-06	7.976699e-09	3.713572e+01	5.240606e+02
1.520000e-06	5.253076e-06	7.999207e-09	3.732073e+01	5.256393e+02
1.530000e-06	5.277000e-06	8.020105e-09	3.749069e+01	5.270795e+02
1.540000e-06	5.299069e-06	8.038046e-09	3.764748e+01	5.283828e+02
1.550000e-06	5.319409e-06	8.054500e-09	3.779199e+01	5.295501e+02
1.560000e-06	5.337925e-06	8.069818e-09	3.792353e+01	5.305821e+02
1.570000e-06	5.354398e-06	8.082746e-09	3.804057e+01	5.314805e+02
1.580000e-06	5.368869e-06	8.093962e-09	3.814338e+01	5.322477e+02
1.590000e-06	5.381440e-06	8.103429e-09	3.823269e+01	5.328873e+02
1.600000e-06	5.391803e-06	8.111103e-09	3.830631e+01	5.334039e+02
1.610000e-06	5.399924e-06	8.116952e-09	3.836401e+01	5.338027e+02
1.620000e-06	5.406099e-06	8.121097e-09	3.840788e+01	5.340887e+02
1.630000e-06	5.410487e-06	8.126074e-09	3.843906e+01	5.342665e+02
1.640000e-06	5.412979e-06	8.130807e-09	3.845676e+01	5.343391e+02
1.650000e-06	5.413435e-06	8.132337e-09	3.846000e+01	5.343084e+02
1.660000e-06	5.412093e-06	8.126842e-09	3.845046e+01	5.341745e+02
1.670000e-06	5.409107e-06	8.122203e-09	3.842926e+01	5.339365e+02
1.680000e-06	5.404449e-06	8.118543e-09	3.839616e+01	5.335928e+02
1.690000e-06	5.397900e-06	8.111604e-09	3.834963e+01	5.331420e+02
1.700000e-06	5.389502e-06	8.103912e-09	3.828997e+01	5.325839e+02
1.710000e-06	5.379536e-06	8.097837e-09	3.821916e+01	5.319204e+02
1.720000e-06	5.367945e-06	8.101891e-09	3.813682e+01	5.311557e+02
1.730000e-06	5.354426e-06	8.086389e-09	3.804077e+01	5.302969e+02
1.740000e-06	5.338848e-06	8.004222e-09	3.793009e+01	5.293536e+02
1.750000e-06	5.320849e-06	8.001545e-09	3.780222e+01	5.283375e+02
1.760000e-06	5.300104e-06	8.006300e-09	3.765484e+01	5.272609e+02
1.770000e-06	5.277030e-06	8.029187e-09	3.749091e+01	5.261355e+02
1.780000e-06	5.252604e-06	8.104111e-09	3.731737e+01	5.249712e+02
1.790000e-06	5.227526e-06	7.924314e-09	3.713920e+01	5.237743e+02
1.800000e-06	5.201098e-06	7.919383e-09	3.695144e+01	5.225465e+02
1.810000e-06	5.172388e-06	8.000859e-09	3.674747e+01	5.212844e+02
1.820000e-06	5.141848e-06	7.823665e-09	3.653050e+01	5.199794e+02
1.830000e-06	5.109697e-06	7.938965e-09	3.630208e+01	5.186178e+02
1.840000e-06	5.075555e-06	7.962081e-09	3.605951e+01	5.171824e+02
1.850000e-06	5.039799e-06	7.729773e-09	3.580549e+01	5.156541e+02
1.860000e-06	5.002277e-06	7.857436e-09	3.553891e+01	5.140130e+02
1.870000e-06	4.962793e-06	7.822821e-09	3.525839e+01	5.122413e+02
1.880000e-06	4.921638e-06	7.682124e-09	3.496601e+01	5.103240e+02
1.890000e-06	4.878694e-06	7.778124e-09	3.466091e+01	5.082511e+02
1.900000e-06	4.834197e-06	7.664415e-09	3.434478e+01	5.060180e+02
1.910000e-06	4.787934e-06	7.682095e-09	3.401610e+01	5.036254e+02
1.920000e-06	4.739526e-06	7.661028e-09	3.367218e+01	5.010794e+02
1.930000e-06	4.689431e-06	7.505431e-09	3.331628e+01	4.983899e+02
1.940000e-06	4.637649e-06	7.597053e-09	3.294839e+01	4.955696e+02
1.950000e-06	4.583811e-06	7.501531e-09	3.256590e+01	4.926319e+02
1.960000e-06	4.527977e-06	7.397257e-09	3.216923e+01	4.895897e+02
1.970000e-06	4.470419e-06	7.391280e-09	3.176030e+01	4.864532e+02
1.980000e-06	4.411444e-06	7.355567e-09	3.134131e+01	4.832295e+02
1.990000e-06	4.350967e-06	7.348423e-09	3.091165e+01	4.799217e+02
2.000000e-06	4.288766e-06	7.199724e-09	3.046974e+01	4.765286e+02
2.010000e-06	4.224957e-06	7.204650e-09	3.001641e+01	4.730458e+02
2.020000e-06	4.159625e-06	7.172232e-09	2.955225e+01	4.694659e+02
2.030000e-06	4.092848e-06	7.036180e-09	2.907783e+01	4.657799e+02
2.040000e-06	4.024705e-06	7.046900e-09	2.859371e+01	4.619788e+02
2.050000e-06	3.955133e-06	6.987030e-09	2.809943e+01	4.580542e+02
2.060000e-06	3.883997e-06	6.925039e-09	2.759404e+01	4.539994e+02
2.070000e-06	3.811411e-06	6.813784e-09	2.707835e+01	4.498100e+02
2.080000e-06	3.737520e-06	6.748731e-09	2.655339e+01	4.454844e+02
2.090000e-06	3.662265e-06	6.741593e-09	2.601874e+01	4.410228e+02
2.100000e-06	3.585544e-06	6.644303e-09	2.547366e+01	4.364271e+02
2.110000e-06	3.507230e-06	6.571846e-09	2.491728e+01	4.317004e+02
2.120000e-06	3.427570e-06	6.497322e-09	2.435133e+01	4.268457e+02
2.130000e-06	3.346805e-06	6.434729e-09	2.377753e+01	4.218650e+02
2.140000e-06	3.264912e-06	6.332535e-09	2.319572e+01	4.167596e+02
2.150000e-06	3.181942e-06	6.247915e-09	2.260625e+01	4.115285e+02
2.160000e-06	3.097981e-06	6.195560e-09	2.200975e+01	4.061697e+02
2.170000e-06	3.012897e-06	6.102263e-09	2.140526e+01	4.006794e+02
2.180000e-06	2.926416e-06	6.016523e-09	2.079086e+01	3.950531e+02
2.190000e-06	2.838739e-06	5.927447e-09	2.016795e+01	3.892860e+02
2.200000e-06	2.750145e-06	5.852515e-09	1.953853e+01	3.833738e+02
2.210000e-06	2.660629e-06	5.757219e-09	1.890256e+01	3.773131e+02
2.220000e-06	2.570167e-06	5.650215e-09	1.825987e+01	3.711015e+02
2.230000e-06	2.478797e-06	5.553037e-09	1.761073e+01	3.647384e+02
2.240000e-06	2.386686e-06	5.455328e-09	1.695632e+01	3.582241e+02
2.250000e-06	2.293880e-06	5.358995e-09	1.629697e+01	3.515598e+02
2.260000e-06	2.200235e-06	5.253770e-09	1.563167e+01	3.447468e+02
2.270000e-06	2.105508e-06	5.147689e-09	1.495868e+01	3.377862e+02
2.280000e-06	2.009727e-06	5.037280e-09	1.427820e+01	3.306780e+02
2.290000e-06	1.913248e-06	4.927599e-09	1.359276e+01	3.234207e+02
2.300000e-06	1.816300e-06	4.817618e-09	1.290399e+01	3.160110e+02
2.310000e-06	1.718875e-06	4.709110e-09	1.221183e+01	3.084438e+02
2.320000e-06	1.620870e-06	4.593145e-09	1.151555e+01	3.007123e+02
2.330000e-06	1.522293e-06	4.467473e-09	1.081520e+01	2.928086e+02
2.340000e-06	1.423248e-06	4.339327e-09	1.011153e+01	2.847241e+02
2.350000e-06	1.323801e-06	4.210112e-09	9.405009e+00	2.764503e+02
2.360000e-06	1.223964e-06	4.086071e-09	8.695710e+00	2.679791e+02
2.370000e-06	1.123773e-06	3.958340e-09	7.983895e+00	2.593036e+02
2.380000e-06	1.023239e-06	3.822814e-09	7.269651e+00	2.504183e+02
2.390000e-06	9.223434e-07	3.686460e-09	6.552832e+00	2.413192e+02
2.400000e-06	8.210969e-07	3.549028e-09	5.833521e+00	2.320035e+02
2.410000e-06	7.195169e-07	3.406358e-09	5.111842e+00	2.224697e+02
2.420000e-06	6.177177e-07	3.257273e-09	4.388604e+00	2.127167e+02
2.430000e-06	5.156616e-07	3.103962e-09	3.663542e+00	2.027437e+02
2.440000e-06	4.133491e-07	2.950359e-09	2.936658e+00	1.925494e+02
2.450000e-06	3.108117e-07	2.792256e-09	2.208176e+00	1.821315e+02
2.460000e-06	2.080173e-07	2.630325e-09	1.477868e+00	1.714867e+02
2.470000e-06	1.051186e-07	2.470634e-09	7.468201e-01	1.606101e+02
2.480000e-06	2.179243e-09	2.303900e-09	1.548253e-02	1.494952e+02
2.490000e-06	-1.007644e-07	2.127952e-09	-7.158851e-01	1.381340e+02
2.500000e-06	-2.036470e-07	1.951724e-09	-1.446819e+00	1.265172e+02
2.510000e-06	-3.064388e-07	1.774666e-09	-2.177109e+00	1.146342e+02
2.520000e-06	-4.091242e-07	1.591555e-09	-2.906642e+00	1.024735e+02
2.530000e-06	-5.116710e-07	1.399316e-09	-3.635191e+00	9.002320e+01
2.540000e-06	-6.139824e-07	1.202997e-09	-4.362067e+00	7.727117e+01
2.550000e-06	-7.159559e-07	1.003701e-09	-5.086542e+00	6.420584e+01
2.560000e-06	-8.175824e-07	7.958885e-10	-5.808552e+00	5.081679e+01
2.570000e-06	-9.189244e-07	5.828613e-10	-6.528541e+00	3.709562e+01
2.580000e-06	-1.019895e-06	3.675716e-10	-7.245893e+00	2.303701e+01
2.590000e-06	-1.120438e-06	1.467023e-10	-7.960204e+00	8.639834e+00
2.600000e-06	-1.220584e-06	-8.009332e-11	-8.671699e+00	-6.091527e+00
2.610000e-06	-1.320298e-06	-3.095677e-10	-9.380115e+00	-2.114592e+01
2.620000e-06	-1.419549e-06	-5.439507e-10	-1.008525e+01	-3.650427e+01
2.630000e-06	-1.518278e-06	-7.833047e-10	-1.078668e+01	-5.213868e+01
2.640000e-06	-1.616430e-06	-1.026164e-09	-1.148400e+01	-6.801191e+01
2.650000e-06	-1.713995e-06	-1.271876e-09	-1.217716e+01	-8.407742e+01
2.660000e-06	-1.811028e-06	-1.520356e-09	-1.286653e+01	-1.002800e+02
2.670000e-06	-1.907544e-06	-1.770623e-09	-1.355223e+01	-1.165569e+02
2.680000e-06	-2.003453e-06	-2.017814e-09	-1.423362e+01	-1.328402e+02
2.690000e-06	-2.098628e-06	-2.262568e-09	-1.490980e+01	-1.490586e+02
2.700000e-06	-2.192973e-06	-2.505371e-09	-1.558008e+01	-1.651405e+02
2.710000e-06	-2.286364e-06	-2.746592e-09	-1.624358e+01	-1.810172e+02
2.720000e-06	-2.378810e-06	-2.986104e-09	-1.690037e+01	-1.966248e+02
2.730000e-06	-2.470428e-06	-3.221809e-09	-1.755127e+01	-2.119074e+02
2.740000e-06	-2.561140e-06	-3.451525e-09	-1.819574e+01	-2.268187e+02
2.750000e-06	-2.650882e-06	-3.675221e-09	-1.883331e+01	-2.413228e+02
2.760000e-06	-2.739744e-06	-3.894371e-09	-1.946464e+01	-2.553944e+02
2.770000e-06	-2.827807e-06	-4.105974e-09	-2.009029e+01	-2.690185e+02
2.780000e-06	-2.914970e-06	-4.307084e-09	-2.070954e+01	-2.821888e+02
2.790000e-06	-3.001014e-06	-4.498764e-09	-2.132084e+01	-2.949059e+02
2.800000e-06	-3.085853e-06	-4.686659e-09	-2.192359e+01	-3.071750e+02
2.810000e-06	-3.169587e-06	-4.869004e-09	-2.251848e+01	-3.190040e+02
2.820000e-06	-3.252283e-06	-5.042346e-09	-2.310599e+01	-3.304010e+02
2.830000e-06	-3.333963e-06	-5.209195e-09	-2.368629e+01	-3.413733e+02
2.840000e-06	-3.414600e-06	-5.369199e-09	-2.425919e+01	-3.519260e+02
2.850000e-06	-3.494051e-06	-5.523192e-09	-2.482365e+01	-3.620622e+02
2.860000e-06	-3.572037e-06	-5.671047e-09	-2.537770e+01	-3.717832e+02
2.870000e-06	-3.648419e-06	-5.813887e-09	-2.592037e+01	-3.810894e+02
2.880000e-06	-3.723345e-06	-5.952323e-09	-2.645268e+01	-3.899817e+02
2.890000e-06	-3.796937e-06	-6.082906e-09	-2.697551e+01	-3.984630e+02
2.900000e-06	-3.869250e-06	-6.208669e-09	-2.748927e+01	-4.065392e+02
2.910000e-06	-3.940174e-06	-6.331138e-09	-2.799315e+01	-4.142206e+02
2.920000e-06	-4.009549e-06	-6.444777e-09	-2.848603e+01	-4.215217e+02
2.930000e-06	-4.077394e-06	-6.550396e-09	-2.896804e+01	-4.284617e+02
2.940000e-06	-4.143778e-06	-6.652132e-09	-2.943966e+01	-4.350631e+02
