# Temperatura_=_84.03
# Concentracion g/m^3_=_15000.0
# C_Vs_to_Am_M_A/Vsm_=_65563218390.804596
# pendiente_HvsI_1/m_=_3716.3
# ordenada_HvsI_A/m_=_1297.0
# frecuencia_Hz_=_301598.9309254142

Tiempo_(s)	Campo_(V.s)	Magnetizacion_(V.s)	Campo_(kA/m)	Magnetizacion_(A/m)
0.000000e+00	-5.434922e-06	-9.963271e-09	-3.834227e+01	-6.509006e+02
1.000000e-08	-5.432545e-06	-9.960730e-09	-3.832550e+01	-6.506492e+02
2.000000e-08	-5.428284e-06	-9.953123e-09	-3.829544e+01	-6.502429e+02
3.000000e-08	-5.422324e-06	-9.946224e-09	-3.825340e+01	-6.496791e+02
4.000000e-08	-5.414824e-06	-9.937742e-09	-3.820049e+01	-6.489586e+02
5.000000e-08	-5.405558e-06	-9.923555e-09	-3.813512e+01	-6.480861e+02
6.000000e-08	-5.394186e-06	-9.904781e-09	-3.805489e+01	-6.470701e+02
7.000000e-08	-5.380887e-06	-9.881992e-09	-3.796107e+01	-6.459227e+02
8.000000e-08	-5.365607e-06	-9.877289e-09	-3.785327e+01	-6.446580e+02
9.000000e-08	-5.348039e-06	-9.913808e-09	-3.772933e+01	-6.432910e+02
1.000000e-07	-5.328288e-06	-9.883595e-09	-3.758999e+01	-6.418357e+02
1.100000e-07	-5.306579e-06	-9.816546e-09	-3.743684e+01	-6.403038e+02
1.200000e-07	-5.283120e-06	-9.772287e-09	-3.727134e+01	-6.387026e+02
1.300000e-07	-5.258028e-06	-9.658980e-09	-3.709432e+01	-6.370345e+02
1.400000e-07	-5.231295e-06	-9.682855e-09	-3.690572e+01	-6.352965e+02
1.500000e-07	-5.202991e-06	-9.766468e-09	-3.670604e+01	-6.334797e+02
1.600000e-07	-5.173200e-06	-9.606834e-09	-3.649588e+01	-6.315710e+02
1.700000e-07	-5.141897e-06	-9.649655e-09	-3.627504e+01	-6.295536e+02
1.800000e-07	-5.108575e-06	-9.667451e-09	-3.603996e+01	-6.274090e+02
1.900000e-07	-5.073295e-06	-9.456196e-09	-3.579106e+01	-6.251190e+02
2.000000e-07	-5.036506e-06	-9.506997e-09	-3.553153e+01	-6.226669e+02
2.100000e-07	-4.998000e-06	-9.462600e-09	-3.525988e+01	-6.200397e+02
2.200000e-07	-4.957666e-06	-9.322511e-09	-3.497533e+01	-6.172291e+02
2.300000e-07	-4.915351e-06	-9.384021e-09	-3.467680e+01	-6.142315e+02
2.400000e-07	-4.871010e-06	-9.339875e-09	-3.436399e+01	-6.110486e+02
2.500000e-07	-4.824895e-06	-9.254971e-09	-3.403866e+01	-6.076865e+02
2.600000e-07	-4.776892e-06	-9.235452e-09	-3.370000e+01	-6.041547e+02
2.700000e-07	-4.726757e-06	-9.136693e-09	-3.334631e+01	-6.004647e+02
2.800000e-07	-4.674563e-06	-9.087272e-09	-3.297810e+01	-5.966286e+02
2.900000e-07	-4.620510e-06	-9.032514e-09	-3.259676e+01	-5.926575e+02
3.000000e-07	-4.564899e-06	-8.950064e-09	-3.220444e+01	-5.885604e+02
3.100000e-07	-4.507608e-06	-8.905282e-09	-3.180026e+01	-5.843433e+02
3.200000e-07	-4.448455e-06	-8.869867e-09	-3.138295e+01	-5.800091e+02
3.300000e-07	-4.387692e-06	-8.785156e-09	-3.095427e+01	-5.755571e+02
3.400000e-07	-4.325477e-06	-8.674944e-09	-3.051536e+01	-5.709841e+02
3.500000e-07	-4.261882e-06	-8.636010e-09	-3.006671e+01	-5.662845e+02
3.600000e-07	-4.196679e-06	-8.558460e-09	-2.960672e+01	-5.614517e+02
3.700000e-07	-4.129725e-06	-8.465066e-09	-2.913438e+01	-5.564790e+02
3.800000e-07	-4.061224e-06	-8.413666e-09	-2.865112e+01	-5.513600e+02
3.900000e-07	-3.991362e-06	-8.323275e-09	-2.815825e+01	-5.460899e+02
4.000000e-07	-3.920281e-06	-8.220304e-09	-2.765679e+01	-5.406655e+02
4.100000e-07	-3.847957e-06	-8.127121e-09	-2.714656e+01	-5.350851e+02
4.200000e-07	-3.774118e-06	-8.054620e-09	-2.662564e+01	-5.293487e+02
4.300000e-07	-3.698690e-06	-7.979000e-09	-2.609351e+01	-5.234576e+02
4.400000e-07	-3.621785e-06	-7.882753e-09	-2.555096e+01	-5.174133e+02
4.500000e-07	-3.543378e-06	-7.787407e-09	-2.499781e+01	-5.112178e+02
4.600000e-07	-3.463497e-06	-7.687070e-09	-2.443427e+01	-5.048724e+02
4.700000e-07	-3.382414e-06	-7.586095e-09	-2.386225e+01	-4.983779e+02
4.800000e-07	-3.300214e-06	-7.479461e-09	-2.328234e+01	-4.917339e+02
4.900000e-07	-3.216881e-06	-7.374627e-09	-2.269444e+01	-4.849393e+02
5.000000e-07	-3.132521e-06	-7.272652e-09	-2.209930e+01	-4.779919e+02
5.100000e-07	-3.047105e-06	-7.155368e-09	-2.149671e+01	-4.708892e+02
5.200000e-07	-2.960744e-06	-7.041099e-09	-2.088745e+01	-4.636283e+02
5.300000e-07	-2.873478e-06	-6.934727e-09	-2.027181e+01	-4.562062e+02
5.400000e-07	-2.785200e-06	-6.823099e-09	-1.964902e+01	-4.486204e+02
5.500000e-07	-2.695844e-06	-6.702698e-09	-1.901863e+01	-4.408685e+02
5.600000e-07	-2.605266e-06	-6.573482e-09	-1.837963e+01	-4.329486e+02
5.700000e-07	-2.513633e-06	-6.449299e-09	-1.773317e+01	-4.248588e+02
5.800000e-07	-2.421194e-06	-6.329729e-09	-1.708103e+01	-4.165973e+02
5.900000e-07	-2.327919e-06	-6.205674e-09	-1.642300e+01	-4.081623e+02
6.000000e-07	-2.233853e-06	-6.067861e-09	-1.575938e+01	-3.995513e+02
6.100000e-07	-2.139057e-06	-5.927702e-09	-1.509061e+01	-3.907612e+02
6.200000e-07	-2.043505e-06	-5.789310e-09	-1.441651e+01	-3.817886e+02
6.300000e-07	-1.947121e-06	-5.648197e-09	-1.373654e+01	-3.726290e+02
6.400000e-07	-1.849895e-06	-5.510880e-09	-1.305064e+01	-3.632777e+02
6.500000e-07	-1.751847e-06	-5.369930e-09	-1.235893e+01	-3.537293e+02
6.600000e-07	-1.653100e-06	-5.218430e-09	-1.166229e+01	-3.439787e+02
6.700000e-07	-1.553803e-06	-5.058296e-09	-1.096176e+01	-3.340204e+02
6.800000e-07	-1.454009e-06	-4.899803e-09	-1.025774e+01	-3.238494e+02
6.900000e-07	-1.353797e-06	-4.743870e-09	-9.550763e+00	-3.134612e+02
7.000000e-07	-1.253184e-06	-4.585911e-09	-8.840958e+00	-3.028514e+02
7.100000e-07	-1.152196e-06	-4.419258e-09	-8.128508e+00	-2.920163e+02
7.200000e-07	-1.050840e-06	-4.244061e-09	-7.413466e+00	-2.809524e+02
7.300000e-07	-9.490872e-07	-4.066625e-09	-6.695618e+00	-2.696565e+02
7.400000e-07	-8.469356e-07	-3.889988e-09	-5.974959e+00	-2.581255e+02
7.500000e-07	-7.444904e-07	-3.713382e-09	-5.252229e+00	-2.463563e+02
7.600000e-07	-6.418435e-07	-3.529708e-09	-4.528076e+00	-2.343456e+02
7.700000e-07	-5.390110e-07	-3.337997e-09	-3.802613e+00	-2.220899e+02
7.800000e-07	-4.360601e-07	-3.143965e-09	-3.076316e+00	-2.095852e+02
7.900000e-07	-3.330584e-07	-2.951293e-09	-2.349659e+00	-1.968270e+02
8.000000e-07	-2.299634e-07	-2.756360e-09	-1.622345e+00	-1.838103e+02
8.100000e-07	-1.267380e-07	-2.555932e-09	-8.941106e-01	-1.705285e+02
8.200000e-07	-2.343584e-08	-2.350619e-09	-1.653351e-01	-1.569743e+02
8.300000e-07	7.989108e-08	-2.141319e-09	5.636153e-01	-1.431381e+02
8.400000e-07	1.832299e-07	-1.926991e-09	1.292650e+00	-1.290086e+02
8.500000e-07	2.864968e-07	-1.707885e-09	2.021177e+00	-1.145720e+02
8.600000e-07	3.896636e-07	-1.485755e-09	2.748998e+00	-9.981208e+01
8.700000e-07	4.927460e-07	-1.253382e-09	3.476223e+00	-8.471073e+01
8.800000e-07	5.957311e-07	-1.011121e-09	4.202762e+00	-6.924832e+01
8.900000e-07	6.985969e-07	-7.649899e-10	4.928459e+00	-5.340492e+01
9.000000e-07	8.012839e-07	-5.172001e-10	5.652895e+00	-3.716186e+01
9.100000e-07	9.037035e-07	-2.658315e-10	6.375445e+00	-2.050371e+01
9.200000e-07	1.005754e-06	-7.834677e-12	7.095390e+00	-3.420551e+00
9.300000e-07	1.107436e-06	2.566405e-10	7.812740e+00	1.408959e+01
9.400000e-07	1.208744e-06	5.280763e-10	8.527443e+00	3.201842e+01
9.500000e-07	1.309598e-06	8.035376e-10	9.238952e+00	5.034537e+01
9.600000e-07	1.409995e-06	1.083086e-09	9.947230e+00	6.903619e+01
9.700000e-07	1.509924e-06	1.368880e-09	1.065221e+01	8.804226e+01
9.800000e-07	1.609352e-06	1.661964e-09	1.135366e+01	1.073010e+02
9.900000e-07	1.708224e-06	1.960000e-09	1.205118e+01	1.267370e+02
1.000000e-06	1.806361e-06	2.258458e-09	1.274351e+01	1.462646e+02
1.010000e-06	1.903666e-06	2.554852e-09	1.342998e+01	1.657910e+02
1.020000e-06	2.000134e-06	2.848646e-09	1.411054e+01	1.852199e+02
1.030000e-06	2.095770e-06	3.142078e-09	1.478523e+01	2.044560e+02
1.040000e-06	2.190686e-06	3.433245e-09	1.545485e+01	2.234089e+02
1.050000e-06	2.284876e-06	3.715191e-09	1.611934e+01	2.419973e+02
1.060000e-06	2.378260e-06	3.987096e-09	1.677814e+01	2.601518e+02
1.070000e-06	2.470885e-06	4.250820e-09	1.743159e+01	2.778171e+02
1.080000e-06	2.562783e-06	4.509265e-09	1.807992e+01	2.949535e+02
1.090000e-06	2.653897e-06	4.761454e-09	1.872270e+01	3.115362e+02
1.100000e-06	2.743951e-06	5.006450e-09	1.935802e+01	3.275549e+02
1.110000e-06	2.832742e-06	5.240706e-09	1.998442e+01	3.430109e+02
1.120000e-06	2.920434e-06	5.466199e-09	2.060307e+01	3.579150e+02
1.130000e-06	3.007179e-06	5.685294e-09	2.121504e+01	3.722838e+02
1.140000e-06	3.092954e-06	5.899078e-09	2.182016e+01	3.861373e+02
1.150000e-06	3.177752e-06	6.104005e-09	2.241840e+01	3.994957e+02
1.160000e-06	3.261631e-06	6.297921e-09	2.301014e+01	4.123772e+02
1.170000e-06	3.344519e-06	6.485413e-09	2.359490e+01	4.247969e+02
1.180000e-06	3.426135e-06	6.666152e-09	2.417069e+01	4.367655e+02
1.190000e-06	3.506374e-06	6.840450e-09	2.473676e+01	4.482903e+02
1.200000e-06	3.585330e-06	7.007228e-09	2.529377e+01	4.593753e+02
1.210000e-06	3.663017e-06	7.168287e-09	2.584184e+01	4.700229e+02
1.220000e-06	3.739433e-06	7.324463e-09	2.638094e+01	4.802350e+02
1.230000e-06	3.814472e-06	7.474875e-09	2.691033e+01	4.900147e+02
1.240000e-06	3.887867e-06	7.618166e-09	2.742811e+01	4.993676e+02
1.250000e-06	3.959681e-06	7.756355e-09	2.793475e+01	5.083022e+02
1.260000e-06	4.030110e-06	7.887951e-09	2.843161e+01	5.168308e+02
1.270000e-06	4.099118e-06	8.011440e-09	2.891845e+01	5.249686e+02
1.280000e-06	4.166855e-06	8.128280e-09	2.939632e+01	5.327339e+02
1.290000e-06	4.233052e-06	8.239523e-09	2.986332e+01	5.401464e+02
1.300000e-06	4.297421e-06	8.345762e-09	3.031743e+01	5.472266e+02
1.310000e-06	4.360276e-06	8.447307e-09	3.076086e+01	5.539944e+02
1.320000e-06	4.421666e-06	8.545679e-09	3.119396e+01	5.604684e+02
1.330000e-06	4.481658e-06	8.641779e-09	3.161719e+01	5.666649e+02
1.340000e-06	4.540221e-06	8.733261e-09	3.203034e+01	5.725978e+02
1.350000e-06	4.596972e-06	8.819253e-09	3.243070e+01	5.782784e+02
1.360000e-06	4.651933e-06	8.899390e-09	3.281844e+01	5.837156e+02
1.370000e-06	4.705252e-06	8.976107e-09	3.319460e+01	5.889167e+02
1.380000e-06	4.756718e-06	9.051759e-09	3.355768e+01	5.938874e+02
1.390000e-06	4.806039e-06	9.125098e-09	3.390563e+01	5.986329e+02
1.400000e-06	4.853411e-06	9.195767e-09	3.423983e+01	6.031578e+02
1.410000e-06	4.899175e-06	9.261294e-09	3.456269e+01	6.074667e+02
1.420000e-06	4.943433e-06	9.322089e-09	3.487491e+01	6.115638e+02
1.430000e-06	4.985994e-06	9.381184e-09	3.517517e+01	6.154532e+02
1.440000e-06	5.026619e-06	9.438912e-09	3.546178e+01	6.191383e+02
1.450000e-06	5.065465e-06	9.494207e-09	3.573583e+01	6.226216e+02
1.460000e-06	5.102640e-06	9.545097e-09	3.599809e+01	6.259046e+02
1.470000e-06	5.138160e-06	9.590092e-09	3.624868e+01	6.289876e+02
1.480000e-06	5.171722e-06	9.630439e-09	3.648545e+01	6.318699e+02
1.490000e-06	5.203299e-06	9.666775e-09	3.670822e+01	6.345503e+02
1.500000e-06	5.233176e-06	9.700227e-09	3.691900e+01	6.370274e+02
1.510000e-06	5.261415e-06	9.732384e-09	3.711822e+01	6.393005e+02
1.520000e-06	5.287833e-06	9.762039e-09	3.730459e+01	6.413699e+02
1.530000e-06	5.312129e-06	9.789624e-09	3.747599e+01	6.432382e+02
1.540000e-06	5.334451e-06	9.815113e-09	3.763347e+01	6.449100e+02
1.550000e-06	5.355039e-06	9.838150e-09	3.777871e+01	6.463920e+02
1.560000e-06	5.373791e-06	9.857549e-09	3.791101e+01	6.476933e+02
1.570000e-06	5.390499e-06	9.873218e-09	3.802888e+01	6.488240e+02
1.580000e-06	5.405190e-06	9.887398e-09	3.813252e+01	6.497949e+02
1.590000e-06	5.417924e-06	9.900431e-09	3.822236e+01	6.506163e+02
1.600000e-06	5.428464e-06	9.911902e-09	3.829672e+01	6.512969e+02
1.610000e-06	5.436853e-06	9.920242e-09	3.835589e+01	6.518431e+02
1.620000e-06	5.443328e-06	9.925514e-09	3.840158e+01	6.522582e+02
1.630000e-06	5.447967e-06	9.930208e-09	3.843430e+01	6.525423e+02
1.640000e-06	5.450793e-06	9.933967e-09	3.845424e+01	6.526926e+02
1.650000e-06	5.451610e-06	9.937281e-09	3.846000e+01	6.527041e+02
1.660000e-06	5.450486e-06	9.935540e-09	3.845207e+01	6.525705e+02
1.670000e-06	5.447646e-06	9.928552e-09	3.843204e+01	6.522860e+02
1.680000e-06	5.443153e-06	9.923055e-09	3.840034e+01	6.518457e+02
1.690000e-06	5.436752e-06	9.914047e-09	3.835518e+01	6.512478e+02
1.700000e-06	5.428483e-06	9.902851e-09	3.829685e+01	6.504938e+02
1.710000e-06	5.418668e-06	9.892265e-09	3.822761e+01	6.495893e+02
1.720000e-06	5.407210e-06	9.885597e-09	3.814677e+01	6.485438e+02
1.730000e-06	5.393786e-06	9.877892e-09	3.805207e+01	6.473696e+02
1.740000e-06	5.378222e-06	9.790397e-09	3.794226e+01	6.460814e+02
1.750000e-06	5.360352e-06	9.757807e-09	3.781620e+01	6.446940e+02
1.760000e-06	5.339841e-06	9.776787e-09	3.767150e+01	6.432212e+02
1.770000e-06	5.316866e-06	9.765229e-09	3.750941e+01	6.416736e+02
1.780000e-06	5.292390e-06	9.843997e-09	3.733674e+01	6.400577e+02
1.790000e-06	5.267221e-06	9.730440e-09	3.715918e+01	6.383747e+02
1.800000e-06	5.240794e-06	9.605462e-09	3.697274e+01	6.366204e+02
1.810000e-06	5.212086e-06	9.723412e-09	3.677021e+01	6.347848e+02
1.820000e-06	5.181491e-06	9.581965e-09	3.655437e+01	6.328540e+02
1.830000e-06	5.149358e-06	9.542693e-09	3.632768e+01	6.308106e+02
1.840000e-06	5.115219e-06	9.686202e-09	3.608684e+01	6.286360e+02
1.850000e-06	5.079381e-06	9.514948e-09	3.583400e+01	6.263121e+02
1.860000e-06	5.041844e-06	9.530332e-09	3.556919e+01	6.238232e+02
1.870000e-06	5.002329e-06	9.558054e-09	3.529042e+01	6.211569e+02
1.880000e-06	4.961159e-06	9.334941e-09	3.499997e+01	6.183060e+02
1.890000e-06	4.918179e-06	9.377942e-09	3.469676e+01	6.152680e+02
1.900000e-06	4.873486e-06	9.319351e-09	3.438145e+01	6.120457e+02
1.910000e-06	4.827042e-06	9.239172e-09	3.405380e+01	6.086460e+02
1.920000e-06	4.778478e-06	9.291370e-09	3.371120e+01	6.050790e+02
1.930000e-06	4.728261e-06	9.108679e-09	3.335692e+01	6.013564e+02
1.940000e-06	4.676318e-06	9.114836e-09	3.299047e+01	5.974901e+02
1.950000e-06	4.622218e-06	9.089867e-09	3.260881e+01	5.934910e+02
1.960000e-06	4.566248e-06	8.937147e-09	3.221395e+01	5.893674e+02
1.970000e-06	4.508585e-06	8.900340e-09	3.180715e+01	5.851248e+02
1.980000e-06	4.449364e-06	8.815496e-09	3.138936e+01	5.807651e+02
1.990000e-06	4.388611e-06	8.805949e-09	3.096076e+01	5.762872e+02
2.000000e-06	4.326120e-06	8.710763e-09	3.051990e+01	5.716872e+02
2.010000e-06	4.262058e-06	8.629601e-09	3.006796e+01	5.669594e+02
2.020000e-06	4.196551e-06	8.602408e-09	2.960581e+01	5.620968e+02
2.030000e-06	4.129613e-06	8.442951e-09	2.913359e+01	5.570929e+02
2.040000e-06	4.061131e-06	8.391392e-09	2.865045e+01	5.519416e+02
2.050000e-06	3.991000e-06	8.333978e-09	2.815570e+01	5.466383e+02
2.060000e-06	3.919383e-06	8.268786e-09	2.765045e+01	5.411802e+02
2.070000e-06	3.846510e-06	8.179416e-09	2.713635e+01	5.355660e+02
2.080000e-06	3.772400e-06	8.041902e-09	2.661352e+01	5.297960e+02
2.090000e-06	3.696795e-06	7.985797e-09	2.608014e+01	5.238715e+02
2.100000e-06	3.619666e-06	7.882747e-09	2.553601e+01	5.177943e+02
2.110000e-06	3.540990e-06	7.797932e-09	2.498096e+01	5.115662e+02
2.120000e-06	3.460975e-06	7.703389e-09	2.441648e+01	5.051886e+02
2.130000e-06	3.379851e-06	7.603920e-09	2.384416e+01	4.986617e+02
2.140000e-06	3.297542e-06	7.506797e-09	2.326349e+01	4.919853e+02
2.150000e-06	3.214174e-06	7.379071e-09	2.267534e+01	4.851577e+02
2.160000e-06	3.129760e-06	7.297375e-09	2.207982e+01	4.781770e+02
2.170000e-06	3.044152e-06	7.194043e-09	2.147588e+01	4.710403e+02
2.180000e-06	2.957249e-06	7.074982e-09	2.086279e+01	4.637447e+02
2.190000e-06	2.869174e-06	6.947901e-09	2.024144e+01	4.562874e+02
2.200000e-06	2.780093e-06	6.835777e-09	1.961299e+01	4.486659e+02
2.210000e-06	2.690073e-06	6.739265e-09	1.897792e+01	4.408778e+02
2.220000e-06	2.599188e-06	6.617072e-09	1.833675e+01	4.329213e+02
2.230000e-06	2.507447e-06	6.481711e-09	1.768953e+01	4.247945e+02
2.240000e-06	2.414797e-06	6.345186e-09	1.703591e+01	4.164957e+02
2.250000e-06	2.321185e-06	6.223036e-09	1.637549e+01	4.080228e+02
2.260000e-06	2.226690e-06	6.091974e-09	1.570884e+01	3.993734e+02
2.270000e-06	2.131336e-06	5.964595e-09	1.503614e+01	3.905442e+02
2.280000e-06	2.035129e-06	5.832739e-09	1.435742e+01	3.815315e+02
2.290000e-06	1.938204e-06	5.684159e-09	1.367363e+01	3.723309e+02
2.300000e-06	1.840664e-06	5.531969e-09	1.298551e+01	3.629375e+02
2.310000e-06	1.742612e-06	5.388417e-09	1.229377e+01	3.533459e+02
2.320000e-06	1.643997e-06	5.255343e-09	1.159807e+01	3.435509e+02
2.330000e-06	1.544855e-06	5.107304e-09	1.089864e+01	3.335471e+02
2.340000e-06	1.445346e-06	4.944579e-09	1.019662e+01	3.233296e+02
2.350000e-06	1.345450e-06	4.777420e-09	9.491874e+00	3.128938e+02
2.360000e-06	1.245098e-06	4.616915e-09	8.783911e+00	3.022357e+02
2.370000e-06	1.144313e-06	4.457361e-09	8.072895e+00	2.913515e+02
2.380000e-06	1.043085e-06	4.293166e-09	7.358751e+00	2.802379e+02
2.390000e-06	9.413975e-07	4.121921e-09	6.641368e+00	2.688915e+02
2.400000e-06	8.393107e-07	3.944931e-09	5.921167e+00	2.573094e+02
2.410000e-06	7.368666e-07	3.767524e-09	5.198445e+00	2.454884e+02
2.420000e-06	6.340969e-07	3.586088e-09	4.473425e+00	2.334252e+02
2.430000e-06	5.310229e-07	3.401315e-09	3.746259e+00	2.211161e+02
2.440000e-06	4.277886e-07	3.210183e-09	3.017962e+00	2.085571e+02
2.450000e-06	3.244375e-07	3.010165e-09	2.288841e+00	1.957437e+02
2.460000e-06	2.209029e-07	2.804845e-09	1.558425e+00	1.826704e+02
2.470000e-06	1.172288e-07	2.603857e-09	8.270256e-01	1.693306e+02
2.480000e-06	1.352333e-08	2.402692e-09	9.540433e-02	1.557165e+02
2.490000e-06	-9.017657e-08	2.193340e-09	-6.361774e-01	1.418182e+02
2.500000e-06	-1.938775e-07	1.974873e-09	-1.367767e+00	1.276237e+02
2.510000e-06	-2.975195e-07	1.750771e-09	-2.098939e+00	1.131189e+02
2.520000e-06	-4.011062e-07	1.525419e-09	-2.829723e+00	9.828708e+01
2.530000e-06	-5.045455e-07	1.295729e-09	-3.559467e+00	8.310970e+01
2.540000e-06	-6.077480e-07	1.060554e-09	-4.287539e+00	6.756697e+01
2.550000e-06	-7.107469e-07	8.168243e-10	-5.014175e+00	5.163908e+01
2.560000e-06	-8.134632e-07	5.630981e-10	-5.738818e+00	3.530788e+01
2.570000e-06	-9.157530e-07	3.043601e-10	-6.460452e+00	1.855891e+01
2.580000e-06	-1.017538e-06	4.489047e-11	-7.178524e+00	1.383768e+00
2.590000e-06	-1.118835e-06	-2.189782e-10	-7.893155e+00	-1.621752e+01
2.600000e-06	-1.219657e-06	-4.929926e-10	-8.604434e+00	-3.423418e+01
2.610000e-06	-1.320017e-06	-7.772158e-10	-9.312450e+00	-5.264282e+01
2.620000e-06	-1.419871e-06	-1.069622e-09	-1.001690e+01	-7.140611e+01
2.630000e-06	-1.519240e-06	-1.364345e-09	-1.071793e+01	-9.047240e+01
2.640000e-06	-1.618153e-06	-1.659083e-09	-1.141574e+01	-1.097762e+02
2.650000e-06	-1.716501e-06	-1.956815e-09	-1.210957e+01	-1.292397e+02
2.660000e-06	-1.814205e-06	-2.258013e-09	-1.279885e+01	-1.487754e+02
2.670000e-06	-1.911255e-06	-2.559997e-09	-1.348352e+01	-1.682894e+02
2.680000e-06	-2.007695e-06	-2.858195e-09	-1.416388e+01	-1.876852e+02
2.690000e-06	-2.103547e-06	-3.151864e-09	-1.484010e+01	-2.068683e+02
2.700000e-06	-2.198771e-06	-3.439793e-09	-1.551188e+01	-2.257499e+02
2.710000e-06	-2.293142e-06	-3.723713e-09	-1.617765e+01	-2.442511e+02
2.720000e-06	-2.386409e-06	-4.002313e-09	-1.683563e+01	-2.623052e+02
2.730000e-06	-2.478659e-06	-4.270028e-09	-1.748644e+01	-2.798603e+02
2.740000e-06	-2.570066e-06	-4.527371e-09	-1.813130e+01	-2.968800e+02
2.750000e-06	-2.660584e-06	-4.777554e-09	-1.876988e+01	-3.133427e+02
2.760000e-06	-2.750135e-06	-5.022222e-09	-1.940165e+01	-3.292406e+02
2.770000e-06	-2.838753e-06	-5.259529e-09	-2.002683e+01	-3.445776e+02
2.780000e-06	-2.926535e-06	-5.488581e-09	-2.064611e+01	-3.593657e+02
2.790000e-06	-3.013425e-06	-5.707909e-09	-2.125910e+01	-3.736227e+02
2.800000e-06	-3.099130e-06	-5.919618e-09	-2.186373e+01	-3.873688e+02
2.810000e-06	-3.183522e-06	-6.124826e-09	-2.245910e+01	-4.006239e+02
2.820000e-06	-3.266797e-06	-6.321999e-09	-2.304659e+01	-4.134057e+02
2.830000e-06	-3.349016e-06	-6.512038e-09	-2.362663e+01	-4.257282e+02
2.840000e-06	-3.430115e-06	-6.693999e-09	-2.419877e+01	-4.376016e+02
2.850000e-06	-3.510197e-06	-6.866673e-09	-2.476373e+01	-4.490322e+02
2.860000e-06	-3.589105e-06	-7.030900e-09	-2.532041e+01	-4.600237e+02
2.870000e-06	-3.666431e-06	-7.188968e-09	-2.586593e+01	-4.705781e+02
2.880000e-06	-3.742152e-06	-7.341392e-09	-2.640012e+01	-4.806976e+02
2.890000e-06	-3.816410e-06	-7.488093e-09	-2.692400e+01	-4.903856e+02
2.900000e-06	-3.889296e-06	-7.630677e-09	-2.743820e+01	-4.996484e+02
2.910000e-06	-3.960925e-06	-7.769651e-09	-2.794353e+01	-5.084952e+02
2.920000e-06	-4.031030e-06	-7.901267e-09	-2.843810e+01	-5.169390e+02
2.930000e-06	-4.099479e-06	-8.026704e-09	-2.892099e+01	-5.249957e+02
2.940000e-06	-4.166486e-06	-8.147180e-09	-2.939372e+01	-5.326840e+02
