# Temperatura_=_80.44
# Concentracion g/m^3_=_15000.0
# C_Vs_to_Am_M_A/Vsm_=_65563218390.804596
# pendiente_HvsI_1/m_=_3716.3
# ordenada_HvsI_A/m_=_1297.0
# frecuencia_Hz_=_301598.58781468554

Tiempo_(s)	Campo_(V.s)	Magnetizacion_(V.s)	Campo_(kA/m)	Magnetizacion_(A/m)
0.000000e+00	-5.419592e-06	-9.699444e-09	-3.833754e+01	-6.332824e+02
1.000000e-08	-5.417077e-06	-9.695186e-09	-3.831976e+01	-6.330150e+02
2.000000e-08	-5.412754e-06	-9.687216e-09	-3.828917e+01	-6.326025e+02
3.000000e-08	-5.406775e-06	-9.679474e-09	-3.824687e+01	-6.320427e+02
4.000000e-08	-5.399256e-06	-9.669210e-09	-3.819369e+01	-6.313361e+02
5.000000e-08	-5.389976e-06	-9.654171e-09	-3.812804e+01	-6.304862e+02
6.000000e-08	-5.378580e-06	-9.636884e-09	-3.804743e+01	-6.294997e+02
7.000000e-08	-5.365227e-06	-9.619835e-09	-3.795297e+01	-6.283861e+02
8.000000e-08	-5.349868e-06	-9.618009e-09	-3.784433e+01	-6.271574e+02
9.000000e-08	-5.332280e-06	-9.619790e-09	-3.771991e+01	-6.258266e+02
1.000000e-07	-5.312579e-06	-9.589540e-09	-3.758055e+01	-6.244065e+02
1.100000e-07	-5.290963e-06	-9.550628e-09	-3.742763e+01	-6.229082e+02
1.200000e-07	-5.267590e-06	-9.498034e-09	-3.726230e+01	-6.213400e+02
1.300000e-07	-5.242563e-06	-9.434074e-09	-3.708526e+01	-6.197060e+02
1.400000e-07	-5.215932e-06	-9.454699e-09	-3.689687e+01	-6.180058e+02
1.500000e-07	-5.187770e-06	-9.437738e-09	-3.669766e+01	-6.162336e+02
1.600000e-07	-5.158132e-06	-9.373295e-09	-3.648801e+01	-6.143796e+02
1.700000e-07	-5.126905e-06	-9.402671e-09	-3.626711e+01	-6.124297e+02
1.800000e-07	-5.093591e-06	-9.340364e-09	-3.603145e+01	-6.103679e+02
1.900000e-07	-5.058338e-06	-9.238600e-09	-3.578208e+01	-6.081770e+02
2.000000e-07	-5.021634e-06	-9.247066e-09	-3.552244e+01	-6.058405e+02
2.100000e-07	-4.983223e-06	-9.199746e-09	-3.525072e+01	-6.033443e+02
2.200000e-07	-4.942938e-06	-9.145515e-09	-3.496575e+01	-6.006777e+02
2.300000e-07	-4.900674e-06	-9.144866e-09	-3.466678e+01	-5.978345e+02
2.400000e-07	-4.856437e-06	-9.074965e-09	-3.435386e+01	-5.948129e+02
2.500000e-07	-4.810426e-06	-8.992520e-09	-3.402837e+01	-5.916156e+02
2.600000e-07	-4.762498e-06	-8.957666e-09	-3.368934e+01	-5.882490e+02
2.700000e-07	-4.712484e-06	-8.936920e-09	-3.333555e+01	-5.847223e+02
2.800000e-07	-4.660407e-06	-8.879348e-09	-3.296716e+01	-5.810461e+02
2.900000e-07	-4.606444e-06	-8.783223e-09	-3.258543e+01	-5.772308e+02
3.000000e-07	-4.550927e-06	-8.708879e-09	-3.219271e+01	-5.732858e+02
3.100000e-07	-4.493752e-06	-8.668443e-09	-3.178826e+01	-5.692182e+02
3.200000e-07	-4.434730e-06	-8.633091e-09	-3.137074e+01	-5.650323e+02
3.300000e-07	-4.374094e-06	-8.563140e-09	-3.094182e+01	-5.607294e+02
3.400000e-07	-4.312017e-06	-8.480295e-09	-3.050269e+01	-5.563076e+02
3.500000e-07	-4.248569e-06	-8.410008e-09	-3.005387e+01	-5.517629e+02
3.600000e-07	-4.183592e-06	-8.333228e-09	-2.959422e+01	-5.470895e+02
3.700000e-07	-4.116844e-06	-8.274040e-09	-2.912206e+01	-5.422810e+02
3.800000e-07	-4.048552e-06	-8.214577e-09	-2.863897e+01	-5.373310e+02
3.900000e-07	-3.978906e-06	-8.115965e-09	-2.814630e+01	-5.322342e+02
4.000000e-07	-3.907956e-06	-8.010987e-09	-2.764441e+01	-5.269866e+02
4.100000e-07	-3.835732e-06	-7.932277e-09	-2.713351e+01	-5.215862e+02
4.200000e-07	-3.761994e-06	-7.872307e-09	-2.661189e+01	-5.160324e+02
4.300000e-07	-3.686709e-06	-7.794814e-09	-2.607934e+01	-5.103263e+02
4.400000e-07	-3.609994e-06	-7.700094e-09	-2.553666e+01	-5.044699e+02
4.500000e-07	-3.531787e-06	-7.595328e-09	-2.498344e+01	-4.984656e+02
4.600000e-07	-3.452122e-06	-7.488823e-09	-2.441990e+01	-4.923155e+02
4.700000e-07	-3.371185e-06	-7.401262e-09	-2.384736e+01	-4.860211e+02
4.800000e-07	-3.289145e-06	-7.320172e-09	-2.326702e+01	-4.795826e+02
4.900000e-07	-3.206016e-06	-7.225102e-09	-2.267897e+01	-4.729990e+02
5.000000e-07	-3.121836e-06	-7.109629e-09	-2.208350e+01	-4.662678e+02
5.100000e-07	-3.036684e-06	-6.990373e-09	-2.148114e+01	-4.593854e+02
5.200000e-07	-2.950546e-06	-6.882267e-09	-2.087181e+01	-4.523473e+02
5.300000e-07	-2.863526e-06	-6.784194e-09	-2.025624e+01	-4.451486e+02
5.400000e-07	-2.775540e-06	-6.678717e-09	-1.963384e+01	-4.377844e+02
5.500000e-07	-2.686421e-06	-6.553915e-09	-1.900342e+01	-4.302500e+02
5.600000e-07	-2.596186e-06	-6.422365e-09	-1.836511e+01	-4.225416e+02
5.700000e-07	-2.504886e-06	-6.303873e-09	-1.771926e+01	-4.146558e+02
5.800000e-07	-2.412688e-06	-6.195732e-09	-1.706706e+01	-4.065904e+02
5.900000e-07	-2.319622e-06	-6.075163e-09	-1.640873e+01	-3.983436e+02
6.000000e-07	-2.225731e-06	-5.936393e-09	-1.574455e+01	-3.899143e+02
6.100000e-07	-2.131169e-06	-5.796123e-09	-1.507563e+01	-3.813017e+02
6.200000e-07	-2.035905e-06	-5.662470e-09	-1.440175e+01	-3.725048e+02
6.300000e-07	-1.939841e-06	-5.528683e-09	-1.372221e+01	-3.635226e+02
6.400000e-07	-1.842944e-06	-5.394544e-09	-1.303677e+01	-3.543537e+02
6.500000e-07	-1.745292e-06	-5.252667e-09	-1.234599e+01	-3.449961e+02
6.600000e-07	-1.646910e-06	-5.095412e-09	-1.165004e+01	-3.354473e+02
6.700000e-07	-1.547917e-06	-4.936106e-09	-1.094978e+01	-3.257043e+02
6.800000e-07	-1.448401e-06	-4.786824e-09	-1.024582e+01	-3.157637e+02
6.900000e-07	-1.348370e-06	-4.640682e-09	-9.538206e+00	-3.056214e+02
7.000000e-07	-1.247937e-06	-4.484600e-09	-8.827755e+00	-2.952735e+02
7.100000e-07	-1.147165e-06	-4.316677e-09	-8.114908e+00	-2.847155e+02
7.200000e-07	-1.046030e-06	-4.144818e-09	-7.399489e+00	-2.739430e+02
7.300000e-07	-9.445554e-07	-3.973891e-09	-6.681672e+00	-2.629514e+02
7.400000e-07	-8.427510e-07	-3.804314e-09	-5.961519e+00	-2.517360e+02
7.500000e-07	-7.406403e-07	-3.631998e-09	-5.239201e+00	-2.402923e+02
7.600000e-07	-6.383009e-07	-3.450892e-09	-4.515264e+00	-2.286153e+02
7.700000e-07	-5.357192e-07	-3.261825e-09	-3.789614e+00	-2.167003e+02
7.800000e-07	-4.329884e-07	-3.072155e-09	-3.062908e+00	-2.045422e+02
7.900000e-07	-3.301850e-07	-2.885626e-09	-2.335689e+00	-1.921355e+02
8.000000e-07	-2.272908e-07	-2.696752e-09	-1.607828e+00	-1.794743e+02
8.100000e-07	-1.243002e-07	-2.499161e-09	-8.792847e-01	-1.665521e+02
8.200000e-07	-2.123338e-08	-2.294755e-09	-1.502024e-01	-1.533613e+02
8.300000e-07	8.189475e-08	-2.089188e-09	5.793136e-01	-1.398930e+02
8.400000e-07	1.850140e-07	-1.882639e-09	1.308767e+00	-1.261371e+02
8.500000e-07	2.880342e-07	-1.671558e-09	2.037519e+00	-1.120815e+02
8.600000e-07	3.909751e-07	-1.453360e-09	2.765711e+00	-9.771273e+01
8.700000e-07	4.938501e-07	-1.225836e-09	3.493436e+00	-8.301561e+01
8.800000e-07	5.966136e-07	-9.910306e-10	4.220373e+00	-6.797420e+01
8.900000e-07	6.992102e-07	-7.521555e-10	4.946129e+00	-5.257245e+01
9.000000e-07	8.016168e-07	-5.092659e-10	5.670541e+00	-3.679550e+01
9.100000e-07	9.037633e-07	-2.622683e-10	6.393113e+00	-2.063127e+01
9.200000e-07	1.005548e-06	-1.081170e-11	7.113126e+00	-4.072296e+00
9.300000e-07	1.106913e-06	2.468702e-10	7.830171e+00	1.288226e+01
9.400000e-07	1.207921e-06	5.104941e-10	8.544686e+00	3.022463e+01
9.500000e-07	1.308557e-06	7.769130e-10	9.256578e+00	4.793666e+01
9.600000e-07	1.408703e-06	1.046492e-09	9.964997e+00	6.598846e+01
9.700000e-07	1.508367e-06	1.321660e-09	1.067001e+01	8.433766e+01
9.800000e-07	1.607552e-06	1.603491e-09	1.137163e+01	1.029294e+02
9.900000e-07	1.706109e-06	1.888396e-09	1.206881e+01	1.216972e+02
1.000000e-06	1.803819e-06	2.173511e-09	1.276000e+01	1.405647e+02
1.010000e-06	1.900685e-06	2.459911e-09	1.344522e+01	1.594481e+02
1.020000e-06	1.996744e-06	2.745951e-09	1.412473e+01	1.782596e+02
1.030000e-06	2.092043e-06	3.029701e-09	1.479886e+01	1.969106e+02
1.040000e-06	2.186663e-06	3.311008e-09	1.546819e+01	2.153158e+02
1.050000e-06	2.280561e-06	3.584702e-09	1.613241e+01	2.333965e+02
1.060000e-06	2.373701e-06	3.848079e-09	1.679128e+01	2.510838e+02
1.070000e-06	2.466082e-06	4.104142e-09	1.744477e+01	2.683212e+02
1.080000e-06	2.557749e-06	4.356909e-09	1.809321e+01	2.850656e+02
1.090000e-06	2.648532e-06	4.604814e-09	1.873540e+01	3.012882e+02
1.100000e-06	2.738170e-06	4.843780e-09	1.936949e+01	3.169734e+02
1.110000e-06	2.826634e-06	5.073064e-09	1.999527e+01	3.321177e+02
1.120000e-06	2.914061e-06	5.293750e-09	2.061372e+01	3.467275e+02
1.130000e-06	3.000605e-06	5.508525e-09	2.122592e+01	3.608160e+02
1.140000e-06	3.086214e-06	5.715888e-09	2.183151e+01	3.744006e+02
1.150000e-06	3.170808e-06	5.915722e-09	2.242992e+01	3.875003e+02
1.160000e-06	3.254471e-06	6.108784e-09	2.302174e+01	4.001329e+02
1.170000e-06	3.337137e-06	6.294719e-09	2.360650e+01	4.123138e+02
1.180000e-06	3.418485e-06	6.472394e-09	2.418195e+01	4.240548e+02
1.190000e-06	3.498453e-06	6.643324e-09	2.474763e+01	4.353638e+02
1.200000e-06	3.577160e-06	6.808043e-09	2.530440e+01	4.462451e+02
1.210000e-06	3.654609e-06	6.965332e-09	2.585227e+01	4.567009e+02
1.220000e-06	3.730770e-06	7.115641e-09	2.639102e+01	4.667324e+02
1.230000e-06	3.805500e-06	7.260969e-09	2.691965e+01	4.763411e+02
1.240000e-06	3.878587e-06	7.402619e-09	2.743666e+01	4.855305e+02
1.250000e-06	3.950159e-06	7.538796e-09	2.794295e+01	4.943071e+02
1.260000e-06	4.020374e-06	7.666924e-09	2.843964e+01	5.026809e+02
1.270000e-06	4.089199e-06	7.787502e-09	2.892650e+01	5.106660e+02
1.280000e-06	4.156667e-06	7.902547e-09	2.940377e+01	5.182797e+02
1.290000e-06	4.222549e-06	8.011475e-09	2.986981e+01	5.255420e+02
1.300000e-06	4.286732e-06	8.115327e-09	3.032382e+01	5.324743e+02
1.310000e-06	4.349416e-06	8.213978e-09	3.076725e+01	5.390985e+02
1.320000e-06	4.410686e-06	8.307915e-09	3.120067e+01	5.454354e+02
1.330000e-06	4.470558e-06	8.398633e-09	3.162419e+01	5.515038e+02
1.340000e-06	4.528877e-06	8.487646e-09	3.203673e+01	5.573195e+02
1.350000e-06	4.585402e-06	8.574207e-09	3.243658e+01	5.628951e+02
1.360000e-06	4.640135e-06	8.655001e-09	3.282376e+01	5.682401e+02
1.370000e-06	4.693154e-06	8.730803e-09	3.319881e+01	5.733606e+02
1.380000e-06	4.744346e-06	8.804579e-09	3.356094e+01	5.782605e+02
1.390000e-06	4.793488e-06	8.876717e-09	3.390856e+01	5.829415e+02
1.400000e-06	4.840772e-06	8.945217e-09	3.424304e+01	5.874045e+02
1.410000e-06	4.886418e-06	9.009506e-09	3.456594e+01	5.916500e+02
1.420000e-06	4.930462e-06	9.070213e-09	3.487750e+01	5.956782e+02
1.430000e-06	4.972778e-06	9.128415e-09	3.517683e+01	5.994900e+02
1.440000e-06	5.013221e-06	9.184249e-09	3.546292e+01	6.030867e+02
1.450000e-06	5.051931e-06	9.237287e-09	3.573675e+01	6.064702e+02
1.460000e-06	5.089014e-06	9.285991e-09	3.599907e+01	6.096428e+02
1.470000e-06	5.124452e-06	9.329290e-09	3.624976e+01	6.126068e+02
1.480000e-06	5.157942e-06	9.368771e-09	3.648666e+01	6.153649e+02
1.490000e-06	5.189478e-06	9.405135e-09	3.670975e+01	6.179198e+02
1.500000e-06	5.219332e-06	9.438029e-09	3.692093e+01	6.202740e+02
1.510000e-06	5.247514e-06	9.468431e-09	3.712028e+01	6.224308e+02
1.520000e-06	5.273768e-06	9.496077e-09	3.730600e+01	6.243938e+02
1.530000e-06	5.297904e-06	9.522171e-09	3.747673e+01	6.261672e+02
1.540000e-06	5.320134e-06	9.545843e-09	3.763399e+01	6.277566e+02
1.550000e-06	5.340665e-06	9.566351e-09	3.777923e+01	6.291683e+02
1.560000e-06	5.359375e-06	9.584453e-09	3.791158e+01	6.304098e+02
1.570000e-06	5.376056e-06	9.600727e-09	3.802958e+01	6.314893e+02
1.580000e-06	5.390727e-06	9.615391e-09	3.813336e+01	6.324149e+02
1.590000e-06	5.403426e-06	9.626890e-09	3.822318e+01	6.331946e+02
1.600000e-06	5.413978e-06	9.636290e-09	3.829783e+01	6.338354e+02
1.610000e-06	5.422380e-06	9.644495e-09	3.835727e+01	6.343424e+02
1.620000e-06	5.428839e-06	9.650401e-09	3.840296e+01	6.347189e+02
1.630000e-06	5.433501e-06	9.654830e-09	3.843594e+01	6.349658e+02
1.640000e-06	5.436232e-06	9.658236e-09	3.845525e+01	6.350817e+02
1.650000e-06	5.436903e-06	9.659051e-09	3.846000e+01	6.350637e+02
1.660000e-06	5.435724e-06	9.656573e-09	3.845166e+01	6.349075e+02
1.670000e-06	5.432839e-06	9.652176e-09	3.843125e+01	6.346089e+02
1.680000e-06	5.428267e-06	9.646143e-09	3.839891e+01	6.341645e+02
1.690000e-06	5.421835e-06	9.637465e-09	3.835341e+01	6.335727e+02
1.700000e-06	5.413586e-06	9.626689e-09	3.829506e+01	6.328346e+02
1.710000e-06	5.403738e-06	9.615568e-09	3.822540e+01	6.319544e+02
1.720000e-06	5.392222e-06	9.605978e-09	3.814393e+01	6.309393e+02
1.730000e-06	5.378756e-06	9.583413e-09	3.804868e+01	6.297996e+02
1.740000e-06	5.363180e-06	9.537185e-09	3.793849e+01	6.285475e+02
1.750000e-06	5.345310e-06	9.515224e-09	3.781208e+01	6.271961e+02
1.760000e-06	5.324780e-06	9.503899e-09	3.766686e+01	6.257580e+02
1.770000e-06	5.301849e-06	9.507095e-09	3.750465e+01	6.242438e+02
1.780000e-06	5.277495e-06	9.513934e-09	3.733237e+01	6.226609e+02
1.790000e-06	5.252337e-06	9.437754e-09	3.715440e+01	6.210125e+02
1.800000e-06	5.225896e-06	9.414867e-09	3.696736e+01	6.192971e+02
1.810000e-06	5.197253e-06	9.412689e-09	3.676474e+01	6.175080e+02
1.820000e-06	5.166617e-06	9.336373e-09	3.654803e+01	6.156343e+02
1.830000e-06	5.134410e-06	9.342554e-09	3.632020e+01	6.136615e+02
1.840000e-06	5.100284e-06	9.336503e-09	3.607879e+01	6.115730e+02
1.850000e-06	5.064487e-06	9.273995e-09	3.582557e+01	6.093518e+02
1.860000e-06	5.026973e-06	9.281586e-09	3.556020e+01	6.069818e+02
1.870000e-06	4.987519e-06	9.211397e-09	3.528111e+01	6.044494e+02
1.880000e-06	4.946397e-06	9.120739e-09	3.499022e+01	6.017450e+02
1.890000e-06	4.903479e-06	9.139630e-09	3.468662e+01	5.988631e+02
1.900000e-06	4.858866e-06	9.108270e-09	3.437104e+01	5.958031e+02
1.910000e-06	4.812521e-06	9.046757e-09	3.404319e+01	5.925685e+02
1.920000e-06	4.764137e-06	8.964063e-09	3.370093e+01	5.891664e+02
1.930000e-06	4.714018e-06	8.890584e-09	3.334640e+01	5.856063e+02
1.940000e-06	4.662185e-06	8.891766e-09	3.297974e+01	5.818990e+02
1.950000e-06	4.608310e-06	8.836824e-09	3.259863e+01	5.780548e+02
1.960000e-06	4.552448e-06	8.763612e-09	3.220347e+01	5.740826e+02
1.970000e-06	4.494801e-06	8.691866e-09	3.179568e+01	5.699890e+02
1.980000e-06	4.435680e-06	8.605384e-09	3.137747e+01	5.657776e+02
1.990000e-06	4.375027e-06	8.555616e-09	3.094841e+01	5.614491e+02
2.000000e-06	4.312650e-06	8.496885e-09	3.050717e+01	5.570010e+02
2.010000e-06	4.248754e-06	8.444643e-09	3.005517e+01	5.524288e+02
2.020000e-06	4.183401e-06	8.356500e-09	2.959288e+01	5.477266e+02
2.030000e-06	4.116598e-06	8.252907e-09	2.912032e+01	5.428879e+02
2.040000e-06	4.048274e-06	8.195877e-09	2.863701e+01	5.379065e+02
2.050000e-06	3.978373e-06	8.130787e-09	2.814253e+01	5.327772e+02
2.060000e-06	3.907010e-06	8.059457e-09	2.763772e+01	5.274966e+02
2.070000e-06	3.834283e-06	7.963594e-09	2.712326e+01	5.220629e+02
2.080000e-06	3.760266e-06	7.861974e-09	2.659967e+01	5.164759e+02
2.090000e-06	3.684834e-06	7.776195e-09	2.606608e+01	5.107370e+02
2.100000e-06	3.607869e-06	7.697056e-09	2.552163e+01	5.048483e+02
2.110000e-06	3.529364e-06	7.630043e-09	2.496630e+01	4.988122e+02
2.120000e-06	3.449550e-06	7.533485e-09	2.440170e+01	4.926307e+02
2.130000e-06	3.368637e-06	7.418252e-09	2.382933e+01	4.863051e+02
2.140000e-06	3.286564e-06	7.303221e-09	2.324876e+01	4.798352e+02
2.150000e-06	3.203390e-06	7.202685e-09	2.266040e+01	4.732198e+02
2.160000e-06	3.119176e-06	7.123230e-09	2.206468e+01	4.664562e+02
2.170000e-06	3.033770e-06	7.033577e-09	2.146053e+01	4.595404e+02
2.180000e-06	2.947031e-06	6.911201e-09	2.084694e+01	4.524679e+02
2.190000e-06	2.859114e-06	6.776914e-09	2.022503e+01	4.452337e+02
2.200000e-06	2.770239e-06	6.670541e-09	1.959634e+01	4.378330e+02
2.210000e-06	2.680454e-06	6.578836e-09	1.896121e+01	4.302613e+02
2.220000e-06	2.589779e-06	6.468355e-09	1.831979e+01	4.225147e+02
2.230000e-06	2.498226e-06	6.336550e-09	1.767215e+01	4.145902e+02
2.240000e-06	2.405817e-06	6.206225e-09	1.701846e+01	4.064856e+02
2.250000e-06	2.312481e-06	6.079791e-09	1.635822e+01	3.981994e+02
2.260000e-06	2.218203e-06	5.950731e-09	1.569130e+01	3.897305e+02
2.270000e-06	2.123075e-06	5.827576e-09	1.501838e+01	3.810780e+02
2.280000e-06	2.027071e-06	5.698989e-09	1.433926e+01	3.722412e+02
2.290000e-06	1.930307e-06	5.548665e-09	1.365476e+01	3.632187e+02
2.300000e-06	1.833040e-06	5.395376e-09	1.296671e+01	3.540091e+02
2.310000e-06	1.735270e-06	5.263308e-09	1.227509e+01	3.446104e+02
2.320000e-06	1.636896e-06	5.136597e-09	1.157920e+01	3.350199e+02
2.330000e-06	1.538014e-06	4.990944e-09	1.087973e+01	3.252344e+02
2.340000e-06	1.438747e-06	4.827767e-09	1.017752e+01	3.152505e+02
2.350000e-06	1.339091e-06	4.663246e-09	9.472569e+00	3.050642e+02
2.360000e-06	1.238995e-06	4.506551e-09	8.764501e+00	2.946712e+02
2.370000e-06	1.138490e-06	4.353907e-09	8.053538e+00	2.840672e+02
2.380000e-06	1.037509e-06	4.197995e-09	7.339212e+00	2.732477e+02
2.390000e-06	9.361111e-07	4.029764e-09	6.621938e+00	2.622082e+02
2.400000e-06	8.343939e-07	3.850993e-09	5.902402e+00	2.509439e+02
2.410000e-06	7.322858e-07	3.674822e-09	5.180102e+00	2.394501e+02
2.420000e-06	6.298662e-07	3.504746e-09	4.455598e+00	2.277222e+02
2.430000e-06	5.272241e-07	3.332033e-09	3.729520e+00	2.157552e+02
2.440000e-06	4.244065e-07	3.147202e-09	3.002201e+00	2.035438e+02
2.450000e-06	3.213939e-07	2.948565e-09	2.273502e+00	1.910827e+02
2.460000e-06	2.181651e-07	2.746220e-09	1.543274e+00	1.783658e+02
2.470000e-06	1.147969e-07	2.550280e-09	8.120598e-01	1.653863e+02
2.480000e-06	1.137754e-08	2.354952e-09	8.048337e-02	1.521364e+02
2.490000e-06	-9.205794e-08	2.151376e-09	-6.512068e-01	1.386070e+02
2.500000e-06	-1.954894e-07	1.937803e-09	-1.382869e+00	1.247875e+02
2.510000e-06	-2.988146e-07	1.718405e-09	-2.113778e+00	1.106657e+02
2.520000e-06	-4.020154e-07	1.500927e-09	-2.843809e+00	9.622740e+01
2.530000e-06	-5.051374e-07	1.282232e-09	-3.573281e+00	8.145746e+01
2.540000e-06	-6.081043e-07	1.056924e-09	-4.301657e+00	6.633976e+01
2.550000e-06	-7.108117e-07	8.197299e-10	-5.028196e+00	5.085839e+01
2.560000e-06	-8.131921e-07	5.678056e-10	-5.752423e+00	3.499895e+01
2.570000e-06	-9.151442e-07	3.135144e-10	-6.473620e+00	1.875016e+01
2.580000e-06	-1.016612e-06	6.301781e-11	-7.191393e+00	2.105828e+00
2.590000e-06	-1.117604e-06	-1.901286e-10	-7.905795e+00	-1.493321e+01
2.600000e-06	-1.218096e-06	-4.533638e-10	-8.616663e+00	-3.235711e+01
2.610000e-06	-1.318114e-06	-7.266146e-10	-9.324177e+00	-5.014528e+01
2.620000e-06	-1.417697e-06	-1.006049e-09	-1.002862e+01	-6.826521e+01
2.630000e-06	-1.516831e-06	-1.288281e-09	-1.072988e+01	-8.667182e+01
2.640000e-06	-1.615495e-06	-1.572287e-09	-1.142782e+01	-1.053077e+02
2.650000e-06	-1.713600e-06	-1.862338e-09	-1.212180e+01	-1.241039e+02
2.660000e-06	-1.811057e-06	-2.159604e-09	-1.281120e+01	-1.429825e+02
2.670000e-06	-1.907919e-06	-2.456806e-09	-1.349639e+01	-1.618584e+02
2.680000e-06	-2.004180e-06	-2.745127e-09	-1.417733e+01	-1.806433e+02
2.690000e-06	-2.099834e-06	-3.025763e-09	-1.485397e+01	-1.992490e+02
2.700000e-06	-2.194802e-06	-3.302964e-09	-1.552577e+01	-2.175914e+02
2.710000e-06	-2.288806e-06	-3.579385e-09	-1.619074e+01	-2.355936e+02
2.720000e-06	-2.381731e-06	-3.852265e-09	-1.684808e+01	-2.531892e+02
2.730000e-06	-2.473727e-06	-4.114532e-09	-1.749885e+01	-2.703245e+02
2.740000e-06	-2.564923e-06	-4.366535e-09	-1.814395e+01	-2.869595e+02
2.750000e-06	-2.655252e-06	-4.611701e-09	-1.878293e+01	-3.030682e+02
2.760000e-06	-2.744575e-06	-4.851535e-09	-1.941480e+01	-3.186378e+02
2.770000e-06	-2.832983e-06	-5.086285e-09	-2.004018e+01	-3.336672e+02
2.780000e-06	-2.920593e-06	-5.312289e-09	-2.065992e+01	-3.481644e+02
2.790000e-06	-3.007192e-06	-5.525189e-09	-2.127252e+01	-3.621437e+02
2.800000e-06	-3.092529e-06	-5.729146e-09	-2.187618e+01	-3.756232e+02
2.810000e-06	-3.176647e-06	-5.928843e-09	-2.247122e+01	-3.886217e+02
2.820000e-06	-3.259712e-06	-6.124133e-09	-2.305881e+01	-4.011568e+02
2.830000e-06	-3.341743e-06	-6.312809e-09	-2.363909e+01	-4.132430e+02
2.840000e-06	-3.422729e-06	-6.489805e-09	-2.421198e+01	-4.248913e+02
2.850000e-06	-3.502564e-06	-6.656506e-09	-2.477672e+01	-4.361087e+02
2.860000e-06	-3.581077e-06	-6.816738e-09	-2.533211e+01	-4.468992e+02
2.870000e-06	-3.658040e-06	-6.972914e-09	-2.587654e+01	-4.572644e+02
2.880000e-06	-3.733431e-06	-7.126007e-09	-2.640984e+01	-4.672055e+02
2.890000e-06	-3.807423e-06	-7.273318e-09	-2.693325e+01	-4.767243e+02
2.900000e-06	-3.880143e-06	-7.414277e-09	-2.744766e+01	-4.858250e+02
2.910000e-06	-3.951593e-06	-7.549485e-09	-2.795310e+01	-4.945147e+02
2.920000e-06	-4.021454e-06	-7.678381e-09	-2.844728e+01	-5.028044e+02
2.930000e-06	-4.089685e-06	-7.801819e-09	-2.892994e+01	-5.107087e+02
2.940000e-06	-4.156470e-06	-7.919095e-09	-2.940237e+01	-5.182458e+02
